 $SEQPAR
 ECHOT= 25.00
 SEQ= '<User:ste_laser_dIR_WSTM>'
 HZPPPM= 500.297709
 NUNFIL= 4096
 DELTAT= 0.000200
 $END
 $NMID
 id='ANONYMOUS ', fmtdat='(2E15.6)'
 volume=0.1
 tramp=1.0
 $END
  -4.421085e+02   7.101052e+03
   1.121772e+03   6.386188e+03
   1.114935e+03   2.161816e+03
  -7.142610e+02   3.745153e+03
  -2.345154e+03   2.218547e+03
  -3.410440e+03   4.321643e+02
  -2.020723e+03  -2.411071e+03
   1.363707e+03  -1.516219e+03
   8.409168e+02   1.813417e+03
  -2.805685e+03   9.484311e+02
  -1.409605e+03  -2.030618e+03
   9.443378e+02  -1.626336e+03
   1.169162e+03  -3.073043e+01
   1.601688e+02   7.918390e+01
   1.515811e+03  -1.744947e+02
   5.885652e+02   2.075127e+03
  -1.968154e+03   7.841620e+02
  -2.044805e+02  -1.295131e+03
   1.092628e+03   4.120395e+02
  -9.201533e+02   7.958237e+02
  -5.363080e+02  -3.469913e+02
  -4.676828e+02  -2.439796e+02
  -1.051936e+02  -8.066546e+02
   1.193883e+02   1.538117e+02
  -1.010691e+03  -6.543515e+02
   5.761384e+02  -1.816432e+03
   1.595330e+03   5.206470e+02
  -6.411547e+02   3.847995e+02
   2.059654e+02  -1.540699e+03
   1.841912e+03  -3.829430e+01
   6.008100e+02   1.596640e+03
  -1.331103e+03   9.731734e+02
  -1.276714e+03  -1.004548e+03
   7.509169e+02  -1.236863e+03
   1.050395e+03   4.426050e+02
   2.592924e+01   6.191482e+02
   8.255918e+01   5.657358e+02
  -8.288713e+02   7.194360e+02
  -1.570695e+03  -3.727995e+02
  -7.632274e+02  -1.441497e+03
   8.081846e+02  -1.706164e+03
   2.306873e+03  -2.382519e+02
   1.277433e+03   2.228989e+03
  -9.106380e+02   1.872309e+03
  -1.478794e+03   5.317504e+02
  -1.574676e+03  -3.542206e+02
  -7.094810e+02  -1.676634e+03
   9.271490e+02  -1.238479e+03
   1.229032e+03   2.725794e+02
   4.251362e+02   1.294770e+03
  -1.088972e+03   1.106103e+03
  -1.557377e+03  -4.981474e+02
  -2.510313e+02  -1.482419e+03
   9.904786e+02  -1.419064e+03
   2.030565e+03  -6.896450e+02
   2.217768e+03   1.291977e+03
   1.959962e+02   2.565209e+03
  -1.813991e+03   1.291101e+03
  -1.717119e+03  -6.954640e+02
  -3.046715e+02  -1.149525e+03
   8.013796e+01  -4.419581e+02
  -9.654111e+01  -5.927137e+02
   5.477941e+02  -7.185951e+02
   7.590588e+02   9.786381e+01
   8.015252e+01   3.766732e+02
  -4.384179e+01  -2.970953e+02
   2.618648e+02  -3.869150e+02
   6.962167e+02   1.410433e+02
   2.667630e+02   8.079823e+02
  -3.597089e+02   3.989030e+02
   8.723481e+01  -1.376669e+01
   1.970880e+01   4.468899e+02
  -7.368262e+02   1.462940e+02
  -3.366498e+02  -6.108309e+02
   9.181057e+01  -2.354018e+02
  -4.118222e+02  -4.697290e+02
   9.503095e+00  -1.006793e+03
   9.137804e+02  -6.878379e+02
   9.512139e+02   3.078413e+02
   1.494855e+02   8.620656e+02
  -5.235266e+02   3.487432e+02
  -1.434155e+02  -1.371100e+02
  -9.332083e+00   1.203097e+02
  -4.241032e+02   6.947622e+01
   9.128196e+01  -5.641366e+02
   7.543748e+02   1.505588e+02
   1.114354e+01   8.923480e+02
  -7.190973e+02   3.453402e+01
   6.208685e+01  -7.862366e+02
   8.113334e+02   4.872358e+01
  -7.554407e+01   8.329480e+02
  -9.759642e+02   2.282438e+02
  -5.222031e+02  -8.457576e+02
   4.668070e+02  -8.759186e+02
   7.341915e+02  -3.978644e+02
   6.582683e+02  -9.734117e+01
   9.557965e+02   4.712823e+02
   2.947863e+02   1.361155e+03
  -1.158611e+03   1.085809e+03
  -1.409052e+03  -4.264949e+02
  -3.454011e+02  -1.046771e+03
   3.381100e+02  -7.215038e+02
   7.122506e+02  -1.919368e+02
   7.507584e+02   5.004719e+02
   1.024420e+02   8.011750e+02
  -5.420331e+02   4.044806e+02
  -4.317376e+02  -2.334826e+02
   1.986160e+02  -5.249532e+02
   6.405517e+02   5.998607e+01
   1.089376e+02   4.925113e+02
  -2.341331e+02   1.569391e+02
  -3.773803e+01  -7.292181e+00
  -1.133576e+02   1.990633e+02
  -1.994216e+02  -2.511522e+02
   3.624610e+02  -3.915098e+02
   5.334518e+02   3.389530e+02
  -1.494966e+02   6.286595e+02
  -5.491955e+02  -8.602215e+01
   3.525047e+01  -6.011903e+02
   6.491844e+02  -7.085943e+01
   3.588719e+02   5.571046e+02
  -9.056395e+01   5.641119e+02
  -3.328954e+02   3.552007e+02
  -3.335833e+02   1.787856e+02
  -5.035767e+02  -6.522446e+01
  -2.107271e+02  -5.685805e+02
   3.748768e+02  -5.357865e+02
   5.110873e+02   3.111899e+02
  -8.729584e+01   2.771169e+02
  -7.124828e+01  -2.203905e+02
   2.034822e+02  -1.487751e+02
   2.737315e+02   4.614477e+00
   3.079944e+02   1.075040e+02
   1.820814e+02   3.827699e+02
  -1.436175e+02   5.561780e+02
  -5.667051e+02   1.470002e+02
  -4.250841e+02  -3.602148e+02
  -3.546557e+01  -4.029278e+02
  -1.726731e+01  -7.896070e+01
  -1.073709e+02  -1.638767e+02
   7.642293e+01  -3.144222e+02
   2.674934e+02  -3.276415e+00
   8.284608e+01   1.829316e+02
  -1.081847e+02  -3.861149e+01
   2.098451e+02  -1.458221e+02
   2.609668e+02   2.263652e+02
  -3.176445e+02   2.758263e+02
  -3.422132e+02  -3.164385e+02
   2.683976e+02  -2.788895e+02
   4.092820e+02   1.540353e+02
  -1.055313e+02   4.927916e+02
  -4.108286e+02   2.915338e+02
  -4.276266e+02  -4.711126e+01
  -3.756722e+02  -2.173372e+02
  -2.743013e+02  -4.927351e+02
   3.072541e+02  -6.123599e+02
   6.613517e+02   2.595070e+01
   1.966899e+02   4.736542e+02
  -3.787523e+02   3.280957e+02
  -2.440516e+02  -1.438269e+02
  -7.108839e+01  -1.638627e+02
   1.035347e+02  -1.664602e+02
   1.582150e+02  -5.206951e+01
   2.174447e+02   2.938999e+02
  -2.752676e+02   3.329616e+02
  -5.011333e+02  -7.035552e+01
  -1.998604e+02  -4.415372e+02
   2.409255e+02  -2.293771e+02
   2.231368e+02   2.181177e+02
  -1.985400e+02   1.966142e+02
  -1.609831e+02   2.592265e+01
  -5.018427e+01  -2.177221e+01
  -1.051012e+02  -3.796471e+01
   8.092371e+01  -3.297237e+02
   5.216597e+02  -8.365182e+01
   2.718711e+02   4.650792e+02
  -3.301503e+02   4.847245e+02
  -4.430684e+02   3.941455e+01
  -1.412106e+02  -2.351967e+02
   1.028706e+02  -3.801975e+01
   1.977058e+02  -6.186365e+01
   1.982673e+02   6.367113e+01
   2.303167e+02   3.786660e+02
  -2.247383e+02   4.222642e+02
  -4.432528e+02  -6.545606e+01
   3.929518e+01  -4.001982e+02
   3.709512e+02  -1.204896e+02
   1.816708e+02   2.026042e+02
   2.716145e+01   1.130660e+02
   9.632362e+01   3.745453e+01
   6.864645e+00   1.543104e+02
  -1.398744e+02   6.659047e+01
   3.214840e+01  -8.370608e+01
   1.385149e+02  -2.830113e+01
   7.649343e+01   6.677043e+01
   8.595564e+01  -4.804797e+00
   2.054047e+02  -1.518662e+01
   2.955466e+02   2.420542e+02
  -2.660158e+01   2.797089e+02
  -1.733729e+02   1.594483e+01
   1.131082e+01  -1.147206e+02
   6.891366e+01  -5.388913e+01
   1.389187e+01  -7.683467e+01
   1.787751e+02  -2.137625e+02
   3.080941e+02   3.803707e+01
   8.981575e+01   3.163331e+02
  -3.057705e+02   6.008187e+01
  -8.716131e+01  -3.713099e+02
   3.064777e+02  -2.661922e+02
   2.609232e+02   1.311013e+02
   1.090200e+02   1.705440e+02
  -2.994409e+01   1.523538e+01
  -1.349255e+02   5.217353e+01
  -2.854622e+02  -4.411704e+01
  -2.201140e+02  -3.295804e+02
   1.708400e+02  -2.740191e+02
   2.567865e+02   1.790257e+02
  -9.376003e+01   2.190455e+02
  -3.123860e+02  -2.898506e+01
  -2.092550e+02  -1.599836e+02
  -1.926954e+01  -2.363447e+02
  -3.659824e+01  -2.110573e+02
   2.018026e+02  -9.843175e+01
   1.118817e+02   2.207300e+02
  -2.455116e+02   2.845996e+02
  -3.790246e+02  -9.801127e+01
  -1.699740e+02  -2.844259e+02
   8.532446e+01  -6.526630e+01
   8.655944e+01   1.036032e+01
   2.298094e+01   1.005408e+01
   5.664627e+01   6.091830e+01
  -8.484826e+01   1.816686e+02
  -3.442263e+02  -1.698028e+02
  -1.337348e+02  -3.546125e+02
   2.526037e+02  -2.230068e+02
   1.716402e+02   9.415459e+01
  -8.289561e+01   1.375305e+02
  -2.005338e+02  -1.118818e+01
  -2.863990e+00  -4.154382e+01
  -3.837103e+01  -6.941275e+01
  -4.737069e+01  -2.046213e+02
   1.818485e+02  -7.446178e+01
   1.803393e+02   1.078478e+02
  -3.677048e+01   1.188191e+02
  -7.936907e+01  -3.352236e+01
   6.136305e+01  -4.360016e+01
  -4.660530e+01   7.831825e+01
  -1.546126e+02   4.949271e+01
  -7.040664e+01  -2.044607e+02
   8.741492e+01  -1.336848e+02
   1.246670e+02   2.224231e+01
  -5.864234e+01  -9.010238e+00
   7.570531e+01  -2.785556e+01
   7.214426e+01   1.076169e+02
  -3.394577e+01   1.010546e+02
  -9.215030e+01  -8.866040e+01
   7.794048e+01  -9.944512e+01
   1.512107e+02   7.071995e+01
  -8.276147e+00   1.343089e+02
  -8.374764e+00  -1.331353e+01
  -3.171612e+01   2.729893e+01
   2.126952e+01  -3.879885e+01
  -7.117507e+01  -6.367688e+01
   5.223720e+01  -1.070437e+02
   1.546767e+02   1.452035e+02
   3.705740e+01   1.838647e+02
  -7.625468e+01  -1.168218e+01
  -2.956399e+01  -1.290384e+02
   1.473179e+02  -1.266859e+02
   1.190006e+02   5.629702e+01
   1.086319e+02  -2.920898e+01
   1.199229e+02   7.351465e+01
  -5.429655e+01   2.071212e+02
  -2.214053e+02   9.181769e+01
  -9.818491e+01  -7.959920e+01
   1.708509e+02  -8.622090e+01
   7.897225e+01   1.075520e+02
   3.622973e+00   1.102655e+02
  -5.080286e+01   3.367480e+01
   5.114772e+00  -1.911381e+01
   8.561396e+00  -3.432295e+01
   1.870825e+01  -1.709122e+02
   1.983751e+02   3.680957e+00
   1.300180e+02   1.727572e+02
  -5.201812e+01   1.739152e+02
  -1.156712e+02   3.217183e+01
  -3.136015e+01   3.073218e+01
   1.965125e+01  -4.322489e+01
   3.644209e+01  -2.605149e+01
   1.259429e+02  -4.941671e+01
   9.790271e+01   3.268519e+01
  -1.440345e+02   2.011343e+02
  -1.499450e+02   9.725071e+01
   8.806252e+00  -1.589900e+02
   1.839639e+02  -4.370794e+00
   2.030122e+01   2.864044e+01
  -2.843451e+01   4.363180e+01
   1.292172e+01  -2.274478e+01
  -3.236637e+01   3.710407e+01
  -3.577069e+01   5.534071e+01
  -1.743083e+01   2.439997e+01
   6.332978e+01   7.331256e+00
   1.778490e+00  -3.273997e+01
  -4.000731e+01   3.523413e+01
   8.322063e+01  -5.264763e+01
   1.394021e+02  -2.988688e+00
   2.077788e+01   4.011713e+01
  -1.165557e+01   1.556523e+01
   6.810336e+01  -3.949655e+01
   3.421034e+01   2.253503e+01
   1.205353e+01   1.759057e+01
   4.769990e+01  -5.887077e+01
   4.404666e+01   3.637986e+00
   5.324128e+00   9.033736e+01
  -3.053028e+01   4.784185e+01
  -4.279409e+01  -7.642747e+01
