 $SEQPAR
 ECHOT= 30.00
 SEQ= 'PRESS'
 HZPPPM= 123.261581
 NUNFIL= 2080
 DELTAT= 0.000500
 $END
 $NMID
 id='ANONYMOUS ', fmtdat='(2E15.6)'
 volume=27.0
 tramp=1.0
 $END
   4.070972e-05   2.075343e-06
   5.867604e-05   3.113484e-05
   9.118546e-06   5.318737e-05
  -2.206159e-05   3.100739e-05
  -1.663131e-05   5.508838e-06
  -5.070763e-07   1.009488e-06
   1.801667e-06   8.786874e-06
  -6.561688e-06   1.169108e-05
  -1.226831e-05   8.593559e-06
  -1.443175e-05   3.764803e-06
  -1.521974e-05  -4.275394e-06
  -9.780225e-06  -1.286240e-05
   2.263450e-06  -1.292907e-05
   9.316762e-06  -2.352858e-06
   2.959874e-06   6.779822e-06
  -8.255513e-06   3.126078e-06
  -1.053812e-05  -8.185957e-06
  -2.019096e-06  -1.436050e-05
   7.984517e-06  -1.091199e-05
   1.223865e-05  -2.968686e-06
   1.037389e-05   3.594468e-06
   4.966447e-06   6.553789e-06
  -5.390745e-07   5.322995e-06
  -1.887279e-06   1.693968e-06
   1.576514e-06   3.944138e-07
   4.012033e-06   3.907828e-06
  -5.619548e-07   7.392838e-06
  -8.054314e-06   4.130711e-06
  -8.610083e-06  -4.375746e-06
  -1.997657e-07  -8.459817e-06
   7.622895e-06  -3.308706e-06
   6.637534e-06   4.483413e-06
  -3.466438e-07   6.807011e-06
  -5.255515e-06   3.478293e-06
  -5.300868e-06  -6.818839e-07
  -3.080624e-06  -2.919229e-06
  -3.018840e-07  -3.789977e-06
   1.896132e-06  -2.696657e-06
   1.715075e-06   8.859151e-08
  -1.444011e-06   1.361656e-06
  -3.482955e-06  -1.861569e-06
  -2.239082e-07  -6.030192e-06
   5.583043e-06  -4.817356e-06
   6.855607e-06   1.471450e-06
   2.079976e-06   6.004350e-06
  -3.135629e-06   3.769541e-06
  -2.736096e-06  -1.973941e-06
   2.272152e-06  -3.974408e-06
   5.945823e-06  -1.745300e-07
   4.777999e-06   5.698676e-06
  -4.652508e-07   8.566023e-06
  -6.423437e-06   6.310957e-06
  -9.145754e-06   3.430416e-07
  -6.474371e-06  -5.699746e-06
  -2.422958e-07  -7.232758e-06
   4.498492e-06  -3.436660e-06
   3.851139e-06   1.496792e-06
  -3.761571e-07   2.530865e-06
  -2.568223e-06  -4.122563e-07
  -2.388955e-07  -2.705076e-06
   2.948546e-06  -1.026660e-06
   2.814049e-06   2.762687e-06
  -6.616248e-07   4.166125e-06
  -4.229655e-06   1.799731e-06
  -4.688088e-06  -2.461421e-06
  -1.697361e-06  -5.302072e-06
   2.844790e-06  -4.969088e-06
   6.350959e-06  -1.589181e-06
   6.071493e-06   3.154382e-06
   1.936824e-06   6.134755e-06
  -2.659813e-06   4.981608e-06
  -4.335825e-06   1.508830e-06
  -2.669685e-06  -5.847848e-07
  -9.892861e-07  -1.814834e-07
  -1.714005e-06   6.610308e-07
  -3.354380e-06  -6.111414e-07
  -2.728672e-06  -3.599516e-06
   8.402758e-07  -5.199216e-06
   4.568047e-06  -3.052534e-06
   5.148094e-06   1.699688e-06
   1.700071e-06   5.106600e-06
  -3.125397e-06   4.535416e-06
  -5.620398e-06   2.379881e-07
  -3.905504e-06  -4.596996e-06
   6.530999e-07  -6.208057e-06
   4.322182e-06  -3.969325e-06
   5.155313e-06  -1.376561e-07
   3.572124e-06   2.142701e-06
   1.941943e-06   2.288981e-06
   1.601725e-06   2.106456e-06
   1.862836e-06   3.083963e-06
   5.706040e-07   4.934235e-06
  -2.617995e-06   5.588084e-06
  -5.895301e-06   3.335161e-06
  -7.202085e-06  -1.055270e-06
  -4.786674e-06  -5.002231e-06
  -2.209622e-07  -6.073350e-06
   3.046124e-06  -3.774607e-06
   3.198371e-06  -3.259942e-07
   1.150495e-06   1.420902e-06
  -6.861231e-07   3.859646e-07
  -4.665698e-07  -1.401348e-06
   1.166260e-06  -1.507484e-06
   1.896871e-06   7.173699e-08
   7.676850e-07   1.371691e-06
  -1.329686e-06   8.390359e-07
  -1.814310e-06  -1.602241e-06
   5.828175e-07  -3.771945e-06
   4.066824e-06  -2.942264e-06
   5.837023e-06   8.558730e-07
   4.316364e-06   4.841669e-06
   2.236734e-07   6.414725e-06
  -3.685964e-06   4.383978e-06
  -4.693128e-06   4.516901e-07
  -2.658517e-06  -2.034522e-06
  -5.142346e-08  -1.825329e-06
   7.822464e-07  -1.847909e-07
  -1.448921e-07   8.064662e-07
  -1.266651e-06   2.246809e-07
  -1.384727e-06  -1.060230e-06
  -2.096226e-07  -1.659941e-06
   7.783337e-07  -8.013352e-07
   4.108412e-07   3.768924e-07
  -1.156444e-06   2.663875e-07
  -1.698135e-06  -1.661357e-06
  -9.287838e-08  -3.526089e-06
   2.725078e-06  -3.405318e-06
   4.596138e-06  -8.378130e-07
   3.793708e-06   2.270465e-06
   1.046810e-06   3.610545e-06
  -1.298926e-06   2.296327e-06
  -1.323224e-06   2.233501e-07
   1.876381e-07  -7.544519e-07
   1.553516e-06   3.822812e-07
   1.053490e-06   2.359157e-06
  -1.023935e-06   3.155226e-06
  -3.046057e-06   1.612098e-06
  -3.066724e-06  -9.608257e-07
  -1.087725e-06  -2.424445e-06
   9.129956e-07  -1.478707e-06
   1.055630e-06   4.136559e-07
  -4.823639e-07   1.091941e-06
  -1.920111e-06  -2.456855e-07
  -1.453454e-06  -2.283421e-06
   9.677062e-07  -3.254288e-06
   3.228405e-06  -1.762514e-06
   3.654038e-06   9.765172e-07
   1.862910e-06   3.191317e-06
  -9.684942e-07   3.097071e-06
  -2.493682e-06   1.051504e-06
  -1.923050e-06  -9.725652e-07
  -3.658610e-07  -1.732521e-06
   6.404519e-07  -1.078676e-06
   6.525108e-07  -2.152112e-07
   3.332122e-07  -1.918691e-07
   4.727796e-07  -6.194436e-07
   1.541286e-06  -5.303361e-07
   2.227680e-06   9.798390e-07
   1.324052e-06   2.593073e-06
  -7.184151e-07   3.173381e-06
  -2.712525e-06   1.791965e-06
  -3.170923e-06  -4.959445e-07
  -1.768936e-06  -1.966183e-06
  -3.773672e-09  -2.074729e-06
   9.596663e-07  -1.085129e-06
   7.951773e-07  -2.050872e-07
   7.222397e-08  -9.715273e-08
  -1.364151e-07  -4.810810e-07
   5.283950e-07  -9.070851e-07
   1.241413e-06  -3.071405e-07
   9.534156e-07   8.692757e-07
  -2.192832e-07   1.236349e-06
  -1.284567e-06   1.840168e-07
  -7.099629e-07  -1.468406e-06
   1.151660e-06  -2.148631e-06
   2.782856e-06  -5.655922e-07
   2.833141e-06   2.116786e-06
   6.059599e-07   3.723150e-06
  -2.143502e-06   3.042157e-06
  -3.503634e-06   8.408484e-07
  -2.912622e-06  -1.369086e-06
  -1.182486e-06  -2.319502e-06
   7.823504e-08  -1.881164e-06
   4.628538e-07  -1.139711e-06
   1.821116e-07  -1.008748e-06
   5.114926e-07  -1.462936e-06
   1.607902e-06  -1.574895e-06
   2.615508e-06  -4.784759e-07
   2.549925e-06   1.585159e-06
   7.840615e-07   3.070395e-06
  -1.595101e-06   2.715471e-06
  -3.010860e-06   8.098717e-07
  -2.414932e-06  -1.451844e-06
  -3.688335e-07  -2.447980e-06
   1.520529e-06  -1.656974e-06
   1.740459e-06   1.569032e-07
   8.208592e-07   1.324616e-06
  -3.151380e-07   1.000469e-06
  -7.306871e-07   2.709947e-08
  -1.301767e-07  -3.409410e-07
   2.947932e-07   5.278578e-08
  -1.819631e-08   6.263840e-07
  -9.672854e-07   5.504632e-07
  -1.464803e-06  -4.207168e-07
  -6.851483e-07  -1.428353e-06
   3.970778e-07  -1.529719e-06
   1.068506e-06  -7.147801e-07
   1.144831e-06   2.273599e-07
   4.121426e-07   9.236373e-07
  -3.550535e-07   6.672115e-07
  -6.159729e-07  -1.426139e-07
  -2.895561e-07  -7.328786e-07
   2.256326e-07  -7.698632e-07
   4.300065e-07  -4.118163e-07
   4.251372e-07  -2.457163e-07
   5.899189e-07  -1.736429e-07
   8.779818e-07  -5.338975e-08
   1.084511e-06   3.133188e-07
   8.178404e-07   1.092571e-06
  -1.420463e-07   1.737595e-06
  -1.147008e-06   1.291643e-06
  -1.628323e-06   1.712018e-07
  -1.245493e-06  -9.266644e-07
  -1.322491e-07  -1.133131e-06
   6.287086e-07  -5.089823e-07
   1.796420e-07   2.305645e-07
  -7.124376e-07   2.612446e-07
  -1.014459e-06  -6.466939e-07
  -4.292224e-07  -1.724619e-06
   9.311018e-07  -1.713838e-06
   1.864849e-06  -6.718715e-07
   1.714752e-06   5.234995e-07
   6.670675e-07   1.116950e-06
  -1.306132e-07   8.496644e-07
  -1.954506e-07   3.839637e-07
   1.055768e-07   1.782687e-07
   2.927933e-07   3.522702e-07
  -1.002302e-07   7.646872e-07
  -8.539289e-07   7.174771e-07
  -1.388307e-06  -1.540988e-08
  -1.025338e-06  -1.184070e-06
   1.015932e-08  -1.717640e-06
   1.154129e-06  -1.140859e-06
   1.579723e-06  -5.238037e-08
   9.423289e-07   9.752373e-07
  -7.528062e-08   1.118226e-06
  -6.084389e-07   4.018306e-07
  -4.833473e-07  -4.349496e-08
  -1.562077e-07  -1.408895e-07
  -5.154310e-08   2.452332e-08
  -3.517822e-07   1.356507e-07
  -5.947169e-07  -3.989050e-07
  -2.660802e-07  -1.057995e-06
   5.565532e-07  -9.526706e-07
   1.126378e-06  -2.650693e-07
   9.630989e-07   6.688488e-07
   1.355258e-07   1.134488e-06
  -6.308555e-07   8.031141e-07
  -8.830388e-07   7.999191e-08
  -5.151854e-07  -5.932373e-07
  -3.254563e-08  -8.050091e-07
   3.025755e-07  -6.037885e-07
   5.198394e-07  -4.117782e-07
   7.088928e-07  -1.125145e-07
   7.500953e-07   3.487060e-08
   7.511303e-07   3.883498e-07
   4.080637e-07   9.900150e-07
  -4.388176e-07   1.215638e-06
  -1.252452e-06   9.393588e-07
  -1.612976e-06  -1.092918e-07
  -1.210058e-06  -1.347026e-06
   1.915721e-08  -1.720204e-06
   1.063608e-06  -1.106910e-06
   1.232918e-06  -1.310665e-07
   7.561284e-07   6.216358e-07
  -9.210326e-09   5.116202e-07
  -1.669676e-07   1.143467e-07
   3.146521e-07   6.358595e-08
   4.664449e-07   2.819261e-07
   1.028077e-07   7.202099e-07
  -4.271634e-07   6.974244e-07
  -7.715615e-07  -8.084129e-08
  -5.853267e-07  -7.503581e-07
   1.986462e-07  -9.124771e-07
   9.598876e-07  -5.223410e-07
   8.591393e-07   3.479600e-07
   2.044394e-07   1.036655e-06
  -6.793618e-07   8.554608e-07
  -1.049727e-06   2.135367e-08
  -6.099500e-07  -7.167260e-07
   8.591408e-08  -8.047636e-07
   4.015076e-07  -2.919972e-07
   3.407042e-07   9.700929e-08
   6.343193e-08   7.564678e-08
  -1.670154e-07  -3.030234e-07
   2.188382e-07  -5.632143e-07
   7.962768e-07  -1.993732e-07
   7.938703e-07   5.163199e-07
   2.820931e-07   8.979000e-07
  -4.861619e-07   8.322559e-07
  -8.424103e-07   1.405121e-07
  -4.779917e-07  -5.565954e-07
   1.687184e-07  -6.291141e-07
   5.319691e-07  -1.431840e-07
   2.277450e-07   4.373116e-07
  -1.699799e-07   5.122564e-07
  -5.359715e-07   1.626988e-07
  -5.011667e-07  -4.044104e-07
   4.424558e-08  -5.496715e-07
   2.851876e-07  -2.338626e-07
   2.080138e-07   1.644032e-09
  -7.878047e-08   4.438184e-08
  -1.695554e-07  -9.441630e-08
   6.076671e-08  -2.348311e-07
   3.152081e-07  -2.725837e-07
   5.474262e-07   2.823797e-08
   2.681422e-07   5.057994e-07
