 $SEQPAR
 ECHOT= 30.00
 SEQ= 'PRESS'
 HZPPPM= 123.261300
 NUNFIL= 2080
 DELTAT= 0.000500
 $END
 $NMID
 id='ANONYMOUS ', fmtdat='(2E15.6)'
 volume=27.0
 tramp=1.0
 $END
   4.747950e-05   1.762972e-06
   7.045476e-05   3.587393e-05
   1.467384e-05   6.408747e-05
  -2.444716e-05   3.961855e-05
  -2.100419e-05   8.213269e-06
  -2.064647e-06   1.283477e-06
   2.160765e-06   1.080388e-05
  -8.222698e-06   1.540472e-05
  -1.696777e-05   1.005148e-05
  -1.891263e-05   1.869023e-06
  -1.669843e-05  -7.049053e-06
  -9.098192e-06  -1.474623e-05
   2.574254e-06  -1.373791e-05
   9.273232e-06  -2.949833e-06
   3.613304e-06   6.652919e-06
  -8.212717e-06   3.467660e-06
  -1.163533e-05  -9.113490e-06
  -2.377018e-06  -1.681060e-05
   1.024586e-05  -1.274027e-05
   1.570775e-05  -2.087689e-06
   1.211406e-05   6.187064e-06
   4.197821e-06   8.435700e-06
  -1.664228e-06   5.714565e-06
  -1.613598e-06   1.604608e-06
   2.562991e-06   1.322198e-06
   3.689524e-06   5.507343e-06
  -2.344479e-06   8.084697e-06
  -9.650396e-06   2.975647e-06
  -8.378059e-06  -6.459239e-06
   1.463221e-06  -9.500330e-06
   9.086843e-06  -2.759393e-06
   6.987075e-06   5.907182e-06
  -1.036503e-06   7.903426e-06
  -6.797402e-06   3.847510e-06
  -6.889554e-06  -8.872927e-07
  -3.673841e-06  -3.845393e-06
   2.946542e-07  -4.517109e-06
   2.652819e-06  -2.669260e-06
   1.065520e-06   7.461521e-07
  -2.911391e-06   9.617357e-07
  -3.948159e-06  -3.756912e-06
   1.433172e-06  -7.860834e-06
   7.982980e-06  -4.786134e-06
   7.922319e-06   3.105030e-06
   1.377676e-06   7.125776e-06
  -3.675484e-06   3.348214e-06
  -2.125202e-06  -2.835461e-06
   3.900833e-06  -3.734508e-06
   7.147194e-06   1.841729e-06
   3.857951e-06   8.255586e-06
  -3.122948e-06   9.934888e-06
  -9.335011e-06   5.385484e-06
  -1.052908e-05  -2.628499e-06
  -5.470147e-06  -8.478235e-06
   2.276016e-06  -8.125222e-06
   6.337426e-06  -2.517374e-06
   4.021113e-06   2.574178e-06
  -9.607757e-07   2.413726e-06
  -2.268584e-06  -1.078931e-06
   9.734517e-07  -2.732074e-06
   4.004320e-06   2.196940e-07
   2.613428e-06   4.362072e-06
  -1.968309e-06   4.592090e-06
  -5.448168e-06   4.973424e-07
  -4.692019e-06  -4.473216e-06
  -8.906305e-08  -6.927266e-06
   5.334950e-06  -4.967575e-06
   8.030585e-06   6.483510e-07
   5.548374e-06   6.172198e-06
  -3.728917e-07   7.647675e-06
  -5.062242e-06   4.419507e-06
  -5.118837e-06   5.245878e-09
  -2.398426e-06  -1.369614e-06
  -1.199283e-06  -1.042035e-08
  -2.714792e-06   2.771026e-07
  -3.777242e-06  -2.323781e-06
  -1.382159e-06  -5.499674e-06
   3.361162e-06  -5.338825e-06
   6.373565e-06  -1.251259e-06
   4.728770e-06   4.027294e-06
  -3.235028e-07   6.469029e-06
  -5.372881e-06   3.818183e-06
  -6.475204e-06  -2.161077e-06
  -2.480199e-06  -7.011492e-06
   3.308391e-06  -6.942516e-06
   6.759434e-06  -2.579994e-06
   6.075398e-06   2.164091e-06
   3.228500e-06   4.081237e-06
   1.220469e-06   3.463498e-06
   9.738139e-07   2.995288e-06
   8.795623e-07   4.404256e-06
  -1.475381e-06   6.071271e-06
  -5.737862e-06   5.199204e-06
  -8.825384e-06   8.244258e-07
  -7.645042e-06  -4.960374e-06
  -2.543344e-06  -8.225719e-06
   2.896355e-06  -7.070960e-06
   5.320210e-06  -2.658714e-06
   3.780784e-06   1.309378e-06
   4.616272e-07   1.974420e-06
  -1.074350e-06  -8.536563e-08
   3.033347e-07  -1.794784e-06
   2.167530e-06  -1.094866e-06
   1.964379e-06   1.252903e-06
  -3.118447e-07   2.140978e-06
  -2.345726e-06   5.667097e-08
  -1.238674e-06  -3.150117e-06
   2.761652e-06  -4.034754e-06
   6.037012e-06  -1.080787e-06
   5.933132e-06   4.157372e-06
   1.779580e-06   7.715405e-06
  -3.687067e-06   6.720018e-06
  -6.355578e-06   2.131391e-06
  -5.116988e-06  -2.255163e-06
  -1.602546e-06  -3.658808e-06
   1.091280e-06  -1.975856e-06
   8.771403e-07   3.616005e-07
  -1.052267e-06   7.574442e-07
  -1.939936e-06  -9.482242e-07
  -7.250010e-07  -2.499925e-06
   9.436152e-07  -1.944284e-06
   1.275313e-06  -1.692523e-07
  -1.626590e-07   6.991541e-07
  -1.620181e-06  -8.087244e-07
  -8.451636e-07  -3.198718e-06
   2.171841e-06  -3.998334e-06
   5.130182e-06  -1.730855e-06
   5.198458e-06   2.111433e-06
   2.258540e-06   4.567354e-06
  -1.260423e-06   4.019489e-06
  -2.739802e-06   1.118905e-06
  -1.214402e-06  -1.142357e-06
   1.126402e-06  -6.157373e-07
   1.762264e-06   1.731373e-06
  -3.582290e-07   3.506214e-06
  -3.448125e-06   2.525235e-06
  -4.299078e-06  -7.782212e-07
  -2.129164e-06  -3.243763e-06
   8.514314e-07  -3.207712e-06
   1.934791e-06  -8.752376e-07
   5.564535e-07   1.030960e-06
  -1.481631e-06   4.800877e-07
  -1.813043e-06  -1.801001e-06
   4.756248e-07  -3.481626e-06
   3.471783e-06  -2.523342e-06
   4.614625e-06   8.480690e-07
   2.667040e-06   3.842063e-06
  -8.693020e-07   4.109522e-06
  -3.311763e-06   2.006364e-06
  -3.277985e-06  -1.064758e-06
  -1.085837e-06  -2.701952e-06
   9.519042e-07  -2.087974e-06
   1.377998e-06  -5.706405e-07
   8.508079e-07   1.884360e-07
   5.298818e-07  -4.303169e-07
   1.354663e-06  -5.208713e-07
   2.292216e-06   7.230977e-07
   1.652504e-06   2.712956e-06
  -6.744505e-07   3.792266e-06
  -3.463801e-06   2.504267e-06
  -4.285724e-06  -5.610076e-07
  -2.498756e-06  -2.992429e-06
   1.434346e-07  -3.213566e-06
   1.640103e-06  -1.701726e-06
   1.564169e-06  -7.148833e-08
   5.661974e-07   3.863179e-07
  -1.016991e-07  -1.831448e-07
   4.721646e-07  -7.926026e-07
   1.424736e-06  -4.596613e-07
   1.366817e-06   8.249411e-07
  -6.172613e-08   1.696999e-06
  -1.550532e-06   6.706908e-07
  -1.439967e-06  -1.237513e-06
   6.491785e-07  -2.302250e-06
   3.057790e-06  -9.613565e-07
   3.198599e-06   2.110068e-06
   6.160001e-07   4.329900e-06
  -2.974834e-06   3.842768e-06
  -4.762627e-06   7.669597e-07
  -3.774383e-06  -2.510438e-06
  -1.229560e-06  -3.782561e-06
   1.052604e-06  -2.900801e-06
   1.504732e-06  -1.325544e-06
   9.540466e-07  -5.796863e-07
   8.317713e-07  -1.000470e-06
   1.854612e-06  -1.149632e-06
   2.848498e-06   1.938510e-08
   2.647368e-06   2.319083e-06
   6.978620e-07   3.890777e-06
  -2.323421e-06   3.399689e-06
  -4.153586e-06   7.119787e-07
  -3.162029e-06  -2.437175e-06
  -2.321480e-07  -3.757054e-06
   2.288055e-06  -2.259346e-06
   2.637127e-06   4.388874e-07
   1.040008e-06   1.950890e-06
  -8.453897e-07   1.598793e-06
  -1.343373e-06   5.671824e-08
  -4.526244e-07  -7.031278e-07
   4.686205e-07  -1.547626e-07
   2.333818e-07   7.012361e-07
  -8.525522e-07   6.584510e-07
  -1.612044e-06  -5.099199e-07
  -7.943539e-07  -1.740161e-06
   7.762813e-07  -1.949424e-06
   1.977854e-06  -8.081707e-07
   1.539868e-06   8.488871e-07
   2.250614e-07   1.530221e-06
  -9.267624e-07   8.905824e-07
  -1.154297e-06  -3.884661e-07
  -2.442672e-07  -9.830764e-07
   6.183054e-07  -8.351071e-07
   9.516891e-07  -2.088055e-07
   7.066239e-07   2.969199e-07
   4.732798e-07   1.741498e-07
   7.310361e-07   8.701231e-08
   9.757834e-07   5.017209e-07
   6.214867e-07   1.340689e-06
  -5.057250e-07   1.903642e-06
  -1.923986e-06   1.335916e-06
  -2.292369e-06  -4.094150e-07
  -1.264684e-06  -1.897878e-06
   4.267509e-07  -1.883071e-06
   1.290917e-06  -6.301755e-07
   5.527456e-07   6.092763e-07
  -7.407922e-07   5.887380e-07
  -1.177950e-06  -8.724312e-07
   3.290555e-09  -1.981321e-06
   1.778851e-06  -1.710115e-06
   2.606130e-06  -8.224564e-08
   2.014887e-06   1.737636e-06
   2.787611e-07   2.408172e-06
  -1.068261e-06   1.527918e-06
  -1.150439e-06   2.505961e-07
  -3.480411e-07  -2.680436e-07
   1.747811e-07   7.780387e-08
  -1.176338e-07   7.508205e-07
  -1.151583e-06   5.783937e-07
  -1.597152e-06  -6.885511e-07
  -8.634730e-07  -1.814357e-06
   7.786010e-07  -2.169511e-06
   2.018760e-06  -9.625499e-07
   1.989709e-06   9.391343e-07
   7.912934e-07   1.870206e-06
  -6.968407e-07   1.571383e-06
  -1.343045e-06   2.650927e-07
  -6.457675e-07  -8.012385e-07
   1.019040e-07  -6.404730e-07
   1.995295e-07   1.006120e-07
  -4.040533e-07   3.569318e-07
  -7.593693e-07  -4.793042e-07
  -4.863302e-08  -1.311652e-06
   1.093693e-06  -1.035435e-06
   1.656593e-06   9.143458e-08
   1.070750e-06   1.294528e-06
  -4.261114e-07   1.517691e-06
  -1.439570e-06   7.467092e-07
  -1.328961e-06  -4.106404e-07
  -3.956746e-07  -1.244118e-06
   5.673010e-07  -1.025425e-06
   9.226228e-07  -3.264332e-07
   7.422899e-07   2.746091e-07
   5.403703e-07   4.451933e-07
   4.194467e-07   4.070858e-07
   4.079469e-07   7.421930e-07
   1.076507e-08   1.176796e-06
  -9.577809e-07   1.399165e-06
  -1.832044e-06   6.221726e-07
  -2.105085e-06  -9.992642e-07
  -1.005312e-06  -2.371435e-06
   7.860646e-07  -2.286797e-06
   2.060715e-06  -8.229273e-07
   1.866987e-06   8.754923e-07
   5.325589e-07   1.687862e-06
  -6.851740e-07   1.068357e-06
  -7.297247e-07   7.352824e-08
  -1.806965e-08  -2.504061e-07
   2.903778e-07   1.226373e-07
  -4.448991e-08   6.815470e-07
  -8.455903e-07   5.728775e-07
  -1.203647e-06  -3.676757e-07
  -4.354159e-07  -1.176129e-06
   7.597512e-07  -1.168038e-06
   1.390554e-06  -4.996095e-08
   8.696446e-07   1.340583e-06
  -3.119089e-07   1.560153e-06
  -1.441063e-06   6.127023e-07
  -1.457607e-06  -6.212770e-07
  -5.339105e-07  -1.413271e-06
   6.268968e-07  -1.149799e-06
   1.000658e-06  -1.227649e-07
   4.968649e-07   7.057179e-07
  -2.232916e-07   3.601944e-07
  -3.654276e-07  -3.638107e-07
   2.521962e-07  -6.465610e-07
   1.000697e-06   9.964534e-08
   6.713788e-07   1.130756e-06
  -5.507715e-07   1.431748e-06
  -1.453603e-06   6.326503e-07
  -1.218752e-06  -5.581807e-07
  -1.964917e-07  -1.164043e-06
   6.748798e-07  -6.469963e-07
   9.129314e-07   3.403236e-07
   1.474154e-07   7.359229e-07
  -6.788488e-07   4.825854e-07
  -9.094405e-07  -3.842212e-07
  -5.059048e-07  -9.308980e-07
   3.948805e-07  -7.014575e-07
   7.230453e-07  -4.275251e-08
   3.398421e-07   4.499266e-07
  -2.689924e-07   4.124752e-07
  -3.513224e-07  -1.404203e-07
   4.781218e-08  -4.956942e-07
   5.977055e-07  -2.405854e-07
   5.852704e-07   3.970528e-07
  -1.466810e-07   7.607921e-07
  -7.719514e-07   5.115914e-07
