 LCModel (Version 6.3-1N) Copyright: S.W. Provencher.          Ref.: Magn. Reson. Med. 30:672-679 (1993).                
 mrs_sub-02_ses-01_press_sub-02_PRESS_35_act_LCM_A
 32 lines in following concentration table = NCONC+1
    Conc.  %SD /Cr+PCr  Metabolite                                         
    0.000 999%   0.000 Asc                                                 
    3.332  16%   0.348 Asp                                                 
    4.903   6%   0.511 Cr                                                  
    1.056  30%   0.110 GABA                                                
    1.243  12%   0.130 GPC                                                 
    1.475   8%   0.154 GSH                                                 
    2.679  16%   0.279 Gln                                                 
   12.943   4%   1.350 Glu                                                 
    7.321   4%   0.764 Ins                                                 
    0.466  53% 4.9E-02 Lac                                                 
   14.522   2%   1.515 NAA                                                 
    0.682  26% 7.1E-02 NAAG                                                
    0.526  28% 5.5E-02 PCh                                                 
    4.683   6%   0.489 PCr                                                 
    4.406  12%   0.460 PE                                                  
    0.351  15% 3.7E-02 Scyllo                                              
    0.885  47% 9.2E-02 Tau                                                 
    0.000 999%   0.000 -CrCH2                                              
    1.769   3%   0.185 PCh+GPC                                             
    9.586   1%   1.000 Cr+PCr                                              
   15.204   1%   1.586 NAA+NAAG                                            
   15.622   5%   1.630 Glu+Gln                                             
    1.800 143%   0.188 Lip13a                                              
    0.000 999%   0.000 Lip13b                                              
    0.000 999%   0.000 Lip09                                               
    8.672  13%   0.905 MM09                                                
    0.260 298% 2.7E-02 Lip20                                               
   12.278  16%   1.281 MM20                                                
    4.187  20%   0.437 MM12                                                
    7.991  25%   0.834 MM14                                                
    5.343  27%   0.557 MM17                                                
   6 lines in following misc. output table
  FWHM = 0.034 ppm    S/N =  49                                            
  Data shift = 0.000 ppm                                                   
  Ph: -22 deg      -7.6 deg/ppm                                            
  alphaB,S = 3.2E-02,   1.3E+01                                            
   26 spline knots.   Ns =11(1)                                            
  (17)11 infls.   (13) 5 extrs.                                            
  917 points on ppm-axis = NY
      4.000000     3.996178     3.992356     3.988534     3.984712     3.980890     3.977067     3.973245     3.969423     3.965601
      3.961779     3.957957     3.954135     3.950313     3.946491     3.942669     3.938847     3.935024     3.931202     3.927380
      3.923558     3.919736     3.915914     3.912092     3.908270     3.904448     3.900626     3.896804     3.892982     3.889159
      3.885337     3.881515     3.877693     3.873871     3.870049     3.866227     3.862405     3.858583     3.854761     3.850939
      3.847116     3.843294     3.839472     3.835650     3.831828     3.828006     3.824184     3.820362     3.816540     3.812718
      3.808896     3.805073     3.801251     3.797429     3.793607     3.789785     3.785963     3.782141     3.778319     3.774497
      3.770675     3.766853     3.763031     3.759208     3.755386     3.751564     3.747742     3.743920     3.740098     3.736276
      3.732454     3.728632     3.724810     3.720988     3.717165     3.713343     3.709521     3.705699     3.701877     3.698055
      3.694233     3.690411     3.686589     3.682767     3.678945     3.675122     3.671300     3.667478     3.663656     3.659834
      3.656012     3.652190     3.648368     3.644546     3.640724     3.636902     3.633080     3.629257     3.625435     3.621613
      3.617791     3.613969     3.610147     3.606325     3.602503     3.598681     3.594859     3.591037     3.587214     3.583392
      3.579570     3.575748     3.571926     3.568104     3.564282     3.560460     3.556638     3.552816     3.548994     3.545171
      3.541349     3.537527     3.533705     3.529883     3.526061     3.522239     3.518417     3.514595     3.510773     3.506951
      3.503129     3.499306     3.495484     3.491662     3.487840     3.484018     3.480196     3.476374     3.472552     3.468730
      3.464908     3.461086     3.457263     3.453441     3.449619     3.445797     3.441975     3.438153     3.434331     3.430509
      3.426687     3.422865     3.419043     3.415220     3.411398     3.407576     3.403754     3.399932     3.396110     3.392288
      3.388466     3.384644     3.380822     3.377000     3.373178     3.369355     3.365533     3.361711     3.357889     3.354067
      3.350245     3.346423     3.342601     3.338779     3.334957     3.331135     3.327312     3.323490     3.319668     3.315846
      3.312024     3.308202     3.304380     3.300558     3.296736     3.292914     3.289092     3.285269     3.281447     3.277625
      3.273803     3.269981     3.266159     3.262337     3.258515     3.254693     3.250871     3.247049     3.243227     3.239404
      3.235582     3.231760     3.227938     3.224116     3.220294     3.216472     3.212650     3.208828     3.205006     3.201184
      3.197361     3.193539     3.189717     3.185895     3.182073     3.178251     3.174429     3.170607     3.166785     3.162963
      3.159141     3.155318     3.151496     3.147674     3.143852     3.140030     3.136208     3.132386     3.128564     3.124742
      3.120920     3.117098     3.113276     3.109453     3.105631     3.101809     3.097987     3.094165     3.090343     3.086521
      3.082699     3.078877     3.075055     3.071233     3.067410     3.063588     3.059766     3.055944     3.052122     3.048300
      3.044478     3.040656     3.036834     3.033012     3.029190     3.025367     3.021545     3.017723     3.013901     3.010079
      3.006257     3.002435     2.998613     2.994791     2.990969     2.987147     2.983325     2.979502     2.975680     2.971858
      2.968036     2.964214     2.960392     2.956570     2.952748     2.948926     2.945104     2.941282     2.937459     2.933637
      2.929815     2.925993     2.922171     2.918349     2.914527     2.910705     2.906883     2.903061     2.899239     2.895416
      2.891594     2.887772     2.883950     2.880128     2.876306     2.872484     2.868662     2.864840     2.861018     2.857196
      2.853374     2.849551     2.845729     2.841907     2.838085     2.834263     2.830441     2.826619     2.822797     2.818975
      2.815153     2.811331     2.807508     2.803686     2.799864     2.796042     2.792220     2.788398     2.784576     2.780754
      2.776932     2.773110     2.769288     2.765465     2.761643     2.757821     2.753999     2.750177     2.746355     2.742533
      2.738711     2.734889     2.731067     2.727245     2.723423     2.719600     2.715778     2.711956     2.708134     2.704312
      2.700490     2.696668     2.692846     2.689024     2.685202     2.681380     2.677557     2.673735     2.669913     2.666091
      2.662269     2.658447     2.654625     2.650803     2.646981     2.643159     2.639337     2.635514     2.631692     2.627870
      2.624048     2.620226     2.616404     2.612582     2.608760     2.604938     2.601116     2.597294     2.593472     2.589649
      2.585827     2.582005     2.578183     2.574361     2.570539     2.566717     2.562895     2.559073     2.555251     2.551429
      2.547606     2.543784     2.539962     2.536140     2.532318     2.528496     2.524674     2.520852     2.517030     2.513208
      2.509386     2.505563     2.501741     2.497919     2.494097     2.490275     2.486453     2.482631     2.478809     2.474987
      2.471165     2.467343     2.463521     2.459698     2.455876     2.452054     2.448232     2.444410     2.440588     2.436766
      2.432944     2.429122     2.425300     2.421478     2.417655     2.413833     2.410011     2.406189     2.402367     2.398545
      2.394723     2.390901     2.387079     2.383257     2.379435     2.375612     2.371790     2.367968     2.364146     2.360324
      2.356502     2.352680     2.348858     2.345036     2.341214     2.337392     2.333570     2.329747     2.325925     2.322103
      2.318281     2.314459     2.310637     2.306815     2.302993     2.299171     2.295349     2.291527     2.287704     2.283882
      2.280060     2.276238     2.272416     2.268594     2.264772     2.260950     2.257128     2.253306     2.249484     2.245661
      2.241839     2.238017     2.234195     2.230373     2.226551     2.222729     2.218907     2.215085     2.211263     2.207441
      2.203619     2.199796     2.195974     2.192152     2.188330     2.184508     2.180686     2.176864     2.173042     2.169220
      2.165398     2.161576     2.157753     2.153931     2.150109     2.146287     2.142465     2.138643     2.134821     2.130999
      2.127177     2.123355     2.119533     2.115710     2.111888     2.108066     2.104244     2.100422     2.096600     2.092778
      2.088956     2.085134     2.081312     2.077490     2.073668     2.069845     2.066023     2.062201     2.058379     2.054557
      2.050735     2.046913     2.043091     2.039269     2.035447     2.031625     2.027802     2.023980     2.020158     2.016336
      2.012514     2.008692     2.004870     2.001048     1.997226     1.993404     1.989582     1.985759     1.981937     1.978115
      1.974293     1.970471     1.966649     1.962827     1.959005     1.955183     1.951361     1.947539     1.943717     1.939894
      1.936072     1.932250     1.928428     1.924606     1.920784     1.916962     1.913140     1.909318     1.905496     1.901674
      1.897851     1.894029     1.890207     1.886385     1.882563     1.878741     1.874919     1.871097     1.867275     1.863453
      1.859631     1.855808     1.851986     1.848164     1.844342     1.840520     1.836698     1.832876     1.829054     1.825232
      1.821410     1.817588     1.813766     1.809943     1.806121     1.802299     1.798477     1.794655     1.790833     1.787011
      1.783189     1.779367     1.775545     1.771723     1.767900     1.764078     1.760256     1.756434     1.752612     1.748790
      1.744968     1.741146     1.737324     1.733502     1.729680     1.725857     1.722035     1.718213     1.714391     1.710569
      1.706747     1.702925     1.699103     1.695281     1.691459     1.687637     1.683815     1.679992     1.676170     1.672348
      1.668526     1.664704     1.660882     1.657060     1.653238     1.649416     1.645594     1.641772     1.637949     1.634127
      1.630305     1.626483     1.622661     1.618839     1.615017     1.611195     1.607373     1.603551     1.599729     1.595906
      1.592084     1.588262     1.584440     1.580618     1.576796     1.572974     1.569152     1.565330     1.561508     1.557686
      1.553864     1.550041     1.546219     1.542397     1.538575     1.534753     1.530931     1.527109     1.523287     1.519465
      1.515643     1.511821     1.507998     1.504176     1.500354     1.496532     1.492710     1.488888     1.485066     1.481244
      1.477422     1.473600     1.469778     1.465955     1.462133     1.458311     1.454489     1.450667     1.446845     1.443023
      1.439201     1.435379     1.431557     1.427735     1.423913     1.420090     1.416268     1.412446     1.408624     1.404802
      1.400980     1.397158     1.393336     1.389514     1.385692     1.381870     1.378047     1.374225     1.370403     1.366581
      1.362759     1.358937     1.355115     1.351293     1.347471     1.343649     1.339827     1.336004     1.332182     1.328360
      1.324538     1.320716     1.316894     1.313072     1.309250     1.305428     1.301606     1.297784     1.293962     1.290139
      1.286317     1.282495     1.278673     1.274851     1.271029     1.267207     1.263385     1.259563     1.255741     1.251919
      1.248096     1.244274     1.240452     1.236630     1.232808     1.228986     1.225164     1.221342     1.217520     1.213698
      1.209876     1.206053     1.202231     1.198409     1.194587     1.190765     1.186943     1.183121     1.179299     1.175477
      1.171655     1.167833     1.164011     1.160188     1.156366     1.152544     1.148722     1.144900     1.141078     1.137256
      1.133434     1.129612     1.125790     1.121968     1.118145     1.114323     1.110501     1.106679     1.102857     1.099035
      1.095213     1.091391     1.087569     1.083747     1.079925     1.076102     1.072280     1.068458     1.064636     1.060814
      1.056992     1.053170     1.049348     1.045526     1.041704     1.037882     1.034060     1.030237     1.026415     1.022593
      1.018771     1.014949     1.011127     1.007305     1.003483     0.999661     0.995839     0.992016     0.988194     0.984372
      0.980550     0.976728     0.972906     0.969083     0.965261     0.961439     0.957617     0.953795     0.949973     0.946151
      0.942328     0.938506     0.934684     0.930862     0.927040     0.923218     0.919396     0.915573     0.911751     0.907929
      0.904107     0.900285     0.896463     0.892641     0.888818     0.884996     0.881174     0.877352     0.873530     0.869708
      0.865885     0.862063     0.858241     0.854419     0.850597     0.846775     0.842953     0.839130     0.835308     0.831486
      0.827664     0.823842     0.820020     0.816198     0.812375     0.808553     0.804731     0.800909     0.797087     0.793265
      0.789443     0.785620     0.781798     0.777976     0.774154     0.770332     0.766510     0.762688     0.758865     0.755043
      0.751221     0.747399     0.743577     0.739755     0.735932     0.732110     0.728288     0.724466     0.720644     0.716822
      0.713000     0.709177     0.705355     0.701533     0.697711     0.693889     0.690067     0.686245     0.682422     0.678600
      0.674778     0.670956     0.667134     0.663312     0.659490     0.655667     0.651845     0.648023     0.644201     0.640379
      0.636557     0.632734     0.628912     0.625090     0.621268     0.617446     0.613624     0.609802     0.605979     0.602157
      0.598335     0.594513     0.590691     0.586869     0.583047     0.579224     0.575402     0.571580     0.567758     0.563936
      0.560114     0.556292     0.552469     0.548647     0.544825     0.541003     0.537181     0.533359     0.529536     0.525714
      0.521892     0.518070     0.514248     0.510426     0.506604     0.502781     0.498959
 NY phased data points follow
   2.59086E-01  2.82752E-01  2.74128E-01  2.80580E-01  2.81467E-01  2.78364E-01  2.70282E-01  2.94531E-01  2.74934E-01  2.88943E-01
   3.03420E-01  2.75146E-01  3.17141E-01  3.17767E-01  3.00630E-01  3.51570E-01  3.56136E-01  3.87310E-01  3.99215E-01  4.24378E-01
   4.41747E-01  4.91869E-01  5.45907E-01  5.65346E-01  6.07659E-01  6.39006E-01  6.69628E-01  6.98213E-01  7.13394E-01  7.02918E-01
   6.98806E-01  6.95975E-01  6.93183E-01  6.60661E-01  6.29686E-01  5.73580E-01  5.37903E-01  5.09257E-01  4.87709E-01  4.48646E-01
   4.31892E-01  3.99087E-01  3.84463E-01  3.63669E-01  3.89442E-01  3.47598E-01  3.46569E-01  3.29292E-01  3.33991E-01  3.17661E-01
   3.10779E-01  3.28270E-01  3.08372E-01  3.26023E-01  3.12030E-01  2.96815E-01  3.18519E-01  3.10878E-01  3.26837E-01  3.42432E-01
   3.66816E-01  3.64576E-01  3.47392E-01  3.61341E-01  3.71522E-01  3.74896E-01  4.01826E-01  4.20309E-01  4.19213E-01  4.35934E-01
   4.26242E-01  4.55668E-01  4.35000E-01  4.49374E-01  4.20821E-01  3.98110E-01  4.08281E-01  3.83481E-01  3.64797E-01  3.49653E-01
   3.56805E-01  3.66087E-01  3.67706E-01  3.84047E-01  3.73592E-01  3.73131E-01  3.61774E-01  3.31628E-01  3.58295E-01  3.19265E-01
   3.09939E-01  2.90987E-01  2.94819E-01  2.96077E-01  2.87808E-01  3.33640E-01  3.22694E-01  3.52035E-01  3.35790E-01  3.67486E-01
   3.92409E-01  4.12156E-01  3.89014E-01  3.70133E-01  3.60329E-01  3.57997E-01  3.37691E-01  3.13480E-01  2.87612E-01  2.80471E-01
   2.43017E-01  2.45573E-01  2.28924E-01  2.08301E-01  2.26749E-01  2.50405E-01  2.69092E-01  2.86225E-01  3.20330E-01  3.52270E-01
   3.63112E-01  3.94684E-01  4.14606E-01  4.52803E-01  4.50415E-01  4.41823E-01  4.33294E-01  4.10186E-01  4.02515E-01  3.66263E-01
   3.50626E-01  3.23469E-01  3.04399E-01  2.74900E-01  2.73395E-01  2.73350E-01  2.43865E-01  2.38309E-01  2.16020E-01  2.06770E-01
   1.96283E-01  1.98116E-01  2.18187E-01  2.06189E-01  1.81741E-01  2.08026E-01  2.07215E-01  2.12547E-01  1.99896E-01  1.98861E-01
   1.80649E-01  1.77705E-01  1.93201E-01  1.81272E-01  1.76601E-01  1.86391E-01  1.95414E-01  1.98091E-01  1.83894E-01  1.83852E-01
   1.62546E-01  1.78307E-01  1.65726E-01  1.61606E-01  1.51123E-01  1.50940E-01  1.51453E-01  1.50931E-01  1.68770E-01  1.59912E-01
   1.68356E-01  1.66668E-01  1.94029E-01  1.83992E-01  1.89731E-01  1.97904E-01  1.94242E-01  1.86067E-01  2.20909E-01  2.07147E-01
   2.19771E-01  2.00551E-01  1.99573E-01  1.86683E-01  1.74341E-01  1.72446E-01  1.64938E-01  1.89315E-01  1.58853E-01  1.91444E-01
   1.77142E-01  2.07795E-01  2.06618E-01  2.36271E-01  2.46802E-01  2.33215E-01  2.57743E-01  2.74284E-01  2.76076E-01  2.81239E-01
   2.94815E-01  2.82493E-01  3.11886E-01  3.23356E-01  3.04463E-01  3.11158E-01  3.35986E-01  3.59361E-01  4.00159E-01  4.56696E-01
   5.03054E-01  5.51342E-01  6.07999E-01  6.21707E-01  6.61814E-01  6.27702E-01  6.21715E-01  5.79117E-01  5.42463E-01  5.25750E-01
   4.68805E-01  4.20596E-01  3.89884E-01  3.54407E-01  3.37123E-01  3.09032E-01  2.56274E-01  2.59969E-01  2.44725E-01  2.29737E-01
   2.18873E-01  2.10331E-01  1.89278E-01  2.16182E-01  2.00632E-01  1.90882E-01  1.71727E-01  1.86284E-01  1.86366E-01  1.97898E-01
   2.01260E-01  2.02543E-01  1.73667E-01  2.02471E-01  2.06356E-01  2.06012E-01  2.09599E-01  1.91060E-01  2.08262E-01  2.34813E-01
   2.37921E-01  2.44048E-01  2.83515E-01  3.02085E-01  3.62279E-01  4.11213E-01  4.87882E-01  5.93266E-01  6.62868E-01  7.49781E-01
   8.45713E-01  8.79021E-01  8.88355E-01  8.90128E-01  8.71018E-01  8.04632E-01  7.41756E-01  6.67746E-01  6.26003E-01  5.68789E-01
   4.84559E-01  4.36736E-01  3.97902E-01  3.73751E-01  3.57480E-01  3.39765E-01  2.87148E-01  2.63768E-01  2.35029E-01  2.17794E-01
   1.88357E-01  1.91056E-01  1.69445E-01  1.96089E-01  1.75966E-01  1.79278E-01  1.74470E-01  1.53641E-01  1.46387E-01  1.54167E-01
   1.62668E-01  1.57859E-01  1.39424E-01  1.36344E-01  1.20369E-01  1.30671E-01  1.37245E-01  1.29638E-01  1.33291E-01  1.14034E-01
   1.07592E-01  1.04901E-01  1.16061E-01  1.34904E-01  1.05651E-01  1.00981E-01  9.26171E-02  1.00406E-01  9.78000E-02  9.39952E-02
   1.02207E-01  9.58006E-02  1.03408E-01  8.65395E-02  1.08251E-01  1.05679E-01  9.14251E-02  9.33673E-02  8.93499E-02  1.07393E-01
   1.32839E-01  1.05549E-01  1.18274E-01  1.20468E-01  1.23720E-01  1.64855E-01  1.48512E-01  1.58327E-01  1.54955E-01  1.54808E-01
   1.55342E-01  1.45752E-01  1.57824E-01  1.51811E-01  1.48728E-01  1.59173E-01  1.64967E-01  1.51897E-01  1.50194E-01  1.56838E-01
   1.44160E-01  1.35166E-01  1.21244E-01  1.31053E-01  1.12763E-01  8.82920E-02  9.60726E-02  7.26653E-02  6.66167E-02  7.15252E-02
   4.78994E-02  6.80266E-02  6.32088E-02  8.78128E-02  1.04945E-01  9.75582E-02  1.07344E-01  1.27458E-01  1.18749E-01  1.54288E-01
   1.59205E-01  1.54019E-01  1.66661E-01  1.42743E-01  1.68253E-01  1.78598E-01  1.75802E-01  2.06067E-01  2.05679E-01  2.04202E-01
   2.22455E-01  2.20267E-01  2.33548E-01  2.30091E-01  2.48735E-01  2.53774E-01  2.35107E-01  2.36842E-01  2.37451E-01  2.26615E-01
   2.19223E-01  2.19998E-01  2.13627E-01  1.91463E-01  1.76304E-01  1.88114E-01  1.74727E-01  1.76761E-01  1.73309E-01  1.51622E-01
   1.62090E-01  1.74910E-01  1.50028E-01  1.41188E-01  1.56541E-01  1.56239E-01  1.54759E-01  1.49867E-01  1.79752E-01  1.67007E-01
   2.04918E-01  2.14669E-01  2.20502E-01  2.22647E-01  2.09361E-01  2.39774E-01  2.33494E-01  2.30636E-01  2.58507E-01  2.50777E-01
   2.85587E-01  3.25670E-01  3.02966E-01  3.30107E-01  3.26452E-01  3.28582E-01  3.30411E-01  3.25107E-01  3.15120E-01  3.07067E-01
   3.09785E-01  2.83280E-01  2.78912E-01  2.52796E-01  2.50468E-01  2.45957E-01  2.30470E-01  2.35996E-01  2.41618E-01  2.53035E-01
   2.61534E-01  2.59911E-01  2.89207E-01  3.52323E-01  3.68845E-01  4.03120E-01  4.49476E-01  4.44636E-01  4.49695E-01  4.74725E-01
   4.65013E-01  4.45694E-01  3.79162E-01  3.76633E-01  3.43460E-01  3.21276E-01  2.97432E-01  2.80514E-01  2.68190E-01  2.61876E-01
   3.00819E-01  3.04948E-01  3.23718E-01  3.20136E-01  3.68251E-01  3.58533E-01  3.70251E-01  3.77736E-01  3.53514E-01  3.51790E-01
   3.28230E-01  3.52825E-01  3.33785E-01  3.34709E-01  3.21749E-01  3.06364E-01  3.20995E-01  3.23850E-01  3.05765E-01  2.71223E-01
   2.95151E-01  2.88920E-01  2.85942E-01  2.73565E-01  2.70197E-01  2.85123E-01  2.83058E-01  2.79170E-01  2.81686E-01  2.94854E-01
   2.76154E-01  2.70900E-01  3.18321E-01  2.90795E-01  2.89333E-01  2.95213E-01  3.02956E-01  2.87900E-01  2.86226E-01  2.76104E-01
   2.92898E-01  2.78668E-01  2.73626E-01  2.68419E-01  2.98314E-01  2.97645E-01  3.04246E-01  3.44443E-01  3.39732E-01  3.65240E-01
   3.72166E-01  3.89262E-01  3.88018E-01  3.94913E-01  3.93181E-01  4.02023E-01  3.98163E-01  4.19232E-01  4.09580E-01  4.27202E-01
   4.24399E-01  4.22142E-01  4.28223E-01  4.40299E-01  4.54805E-01  4.97258E-01  5.15283E-01  5.48838E-01  5.58490E-01  6.13739E-01
   6.31760E-01  7.08903E-01  8.11714E-01  9.47909E-01  1.10313E+00  1.25874E+00  1.39723E+00  1.44940E+00  1.51679E+00  1.50246E+00
   1.45420E+00  1.32257E+00  1.20403E+00  1.07638E+00  9.42975E-01  8.24699E-01  7.27174E-01  6.54066E-01  5.87172E-01  5.21220E-01
   4.98415E-01  4.34141E-01  3.95058E-01  3.84925E-01  3.47841E-01  3.06588E-01  2.74425E-01  2.62288E-01  2.22151E-01  2.23415E-01
   2.18807E-01  1.98177E-01  1.93949E-01  1.86025E-01  1.75487E-01  1.79942E-01  1.76874E-01  1.56637E-01  1.71101E-01  1.54644E-01
   1.79667E-01  1.66367E-01  1.73157E-01  1.56815E-01  1.40669E-01  1.59397E-01  1.49493E-01  1.37503E-01  1.38934E-01  1.25167E-01
   1.28349E-01  1.54647E-01  1.26587E-01  1.36361E-01  1.21382E-01  1.25914E-01  1.47880E-01  1.33218E-01  1.09087E-01  1.30766E-01
   1.11099E-01  1.17686E-01  1.07610E-01  1.37868E-01  1.12154E-01  1.31541E-01  1.30235E-01  1.30995E-01  1.10178E-01  1.12791E-01
   1.23993E-01  1.03371E-01  1.07667E-01  1.13234E-01  1.15774E-01  1.12887E-01  1.40116E-01  9.08402E-02  1.18492E-01  1.32127E-01
   1.15429E-01  9.77224E-02  9.50218E-02  1.02127E-01  1.18893E-01  1.30918E-01  1.12578E-01  1.31448E-01  1.12987E-01  1.05031E-01
   1.47941E-01  1.03120E-01  1.24201E-01  1.47368E-01  1.40352E-01  1.23221E-01  1.37298E-01  1.30909E-01  1.38196E-01  1.26651E-01
   1.37622E-01  1.38699E-01  1.33894E-01  1.40358E-01  1.30862E-01  1.46694E-01  1.25768E-01  1.34697E-01  1.43520E-01  1.34617E-01
   1.42490E-01  1.27521E-01  1.43201E-01  1.32254E-01  1.49621E-01  1.31158E-01  1.28743E-01  1.26259E-01  1.24447E-01  1.25178E-01
   1.11876E-01  1.34783E-01  1.15018E-01  1.02576E-01  1.15255E-01  1.26883E-01  1.04701E-01  1.00562E-01  1.07258E-01  1.11433E-01
   9.89689E-02  1.04524E-01  8.69166E-02  1.01191E-01  9.42471E-02  1.11244E-01  7.91552E-02  1.10356E-01  9.90797E-02  1.02367E-01
   1.00329E-01  1.07533E-01  1.13336E-01  9.98967E-02  1.10339E-01  1.14537E-01  1.08508E-01  1.01892E-01  9.71677E-02  8.20509E-02
   1.22150E-01  1.04601E-01  1.06362E-01  9.01464E-02  1.12108E-01  1.31916E-01  1.36882E-01  1.32857E-01  1.30233E-01  1.30504E-01
   1.45219E-01  1.37914E-01  1.33937E-01  1.34695E-01  1.50260E-01  1.10275E-01  1.46775E-01  1.32405E-01  1.43898E-01  1.55769E-01
   1.61804E-01  1.44933E-01  1.69057E-01  1.35631E-01  1.41455E-01  1.61436E-01  1.59853E-01  1.44080E-01  1.55313E-01  1.68530E-01
   1.65700E-01  1.76445E-01  1.62500E-01  1.74087E-01  1.54873E-01  1.37143E-01  1.49635E-01  1.35028E-01  1.29982E-01  1.12688E-01
   1.17209E-01  1.15450E-01  1.22709E-01  1.12750E-01  1.28691E-01  1.19137E-01  1.17356E-01  1.22280E-01  8.64136E-02  9.33086E-02
   1.23340E-01  1.03417E-01  9.99804E-02  1.06698E-01  1.05127E-01  8.12676E-02  1.07720E-01  9.74951E-02  8.97558E-02  1.13738E-01
   7.27416E-02  8.50472E-02  9.04344E-02  9.55819E-02  8.33469E-02  8.79721E-02  9.11470E-02  9.68717E-02  6.65327E-02  6.85561E-02
   7.21025E-02  8.40220E-02  8.09451E-02  7.89839E-02  8.50049E-02  6.86389E-02  8.03095E-02  4.63271E-02  8.62343E-02  7.30503E-02
   7.06984E-02  4.56412E-02  5.92134E-02  5.11594E-02  3.44682E-02  3.32068E-02  3.98392E-02  2.88875E-02  1.97513E-02  3.99579E-02
   1.88300E-02  2.92190E-02  1.43461E-02  2.95004E-02  3.65386E-02  1.91207E-03  2.62385E-02  9.99005E-03  6.94264E-03  2.41396E-02
   2.56166E-02  3.23693E-02  2.27281E-02  4.01493E-02  3.88482E-03 -7.37283E-04  2.76537E-02  2.59053E-02  2.17558E-02  1.56800E-02
   3.58687E-02  1.87022E-02  2.79994E-02  2.89020E-02  4.90649E-02  5.05826E-02  3.09210E-02  2.60101E-02  3.41565E-02  4.67388E-02
   4.65280E-02  4.05384E-02  4.72238E-02  7.00273E-02  4.84229E-02  6.94477E-02  5.91405E-02  8.74726E-02  7.14695E-02  1.12462E-01
   9.64967E-02  1.07251E-01  1.04623E-01  1.11883E-01  9.88336E-02  1.19199E-01  1.29296E-01  1.28918E-01  1.21035E-01  1.44272E-01
   1.32279E-01  1.43535E-01  1.40750E-01  1.32176E-01  1.50545E-01  1.50935E-01  1.50745E-01  1.41452E-01  1.54807E-01  1.60805E-01
   1.45393E-01  1.58900E-01  1.77076E-01  1.58018E-01  1.57326E-01  1.59927E-01  1.43489E-01  1.59636E-01  1.50712E-01  1.39556E-01
   1.46094E-01  1.25077E-01  1.34729E-01  1.34583E-01  1.22451E-01  1.01852E-01  1.15527E-01  1.13162E-01  8.87146E-02  8.63747E-02
   9.31419E-02  9.65720E-02  8.24413E-02  9.70401E-02  5.94880E-02  7.77848E-02  6.08724E-02  6.65440E-02  6.81417E-02  5.89041E-02
   5.58174E-02  4.78893E-02  6.56661E-02  6.23479E-02  3.90025E-02  3.68891E-02  5.67932E-02  2.97502E-02  5.71970E-02  4.07399E-02
   2.20364E-02  3.17505E-02  4.11401E-02  4.52764E-02  4.02591E-02  3.67769E-02  5.03116E-02  5.27641E-02  4.68090E-02  3.20894E-02
   3.17753E-02  3.72237E-02  3.87246E-02  3.05759E-02  5.31379E-02  3.22015E-02  4.14598E-02  2.59455E-02  4.45852E-02  4.35722E-02
   2.57816E-02  5.37118E-02  3.84758E-02  4.46556E-02  6.47496E-02  4.42118E-02  3.77529E-02  3.47377E-02  5.28051E-02  3.30705E-02
   4.19385E-02  4.15154E-02  3.71303E-02  3.44404E-02  5.28068E-02  2.74050E-02  4.56014E-02  4.17374E-02  4.15032E-02  4.77477E-02
   3.43072E-02  3.34879E-02  4.56028E-02  4.91986E-02  5.94336E-02  6.14327E-02  4.91631E-02  4.48313E-02  4.65307E-02  5.35875E-02
   3.28741E-02  6.18958E-02  5.04963E-02  5.53191E-02  6.83293E-02  4.78442E-02  4.69102E-02
 NY points of the fit to the data follow
   3.02730E-01  2.98441E-01  2.93733E-01  2.90502E-01  2.89048E-01  2.85196E-01  2.78813E-01  2.74288E-01  2.71921E-01  2.72440E-01
   2.77549E-01  2.84936E-01  2.92845E-01  3.02768E-01  3.16954E-01  3.34585E-01  3.49346E-01  3.64709E-01  3.90809E-01  4.23848E-01
   4.60518E-01  5.03459E-01  5.46108E-01  5.79991E-01  6.10267E-01  6.42886E-01  6.70494E-01  6.88935E-01  7.03741E-01  7.14612E-01
   7.14537E-01  7.03793E-01  6.87357E-01  6.64590E-01  6.32623E-01  5.94296E-01  5.58076E-01  5.26745E-01  4.92334E-01  4.55102E-01
   4.23482E-01  3.96502E-01  3.72499E-01  3.54588E-01  3.43632E-01  3.33054E-01  3.20251E-01  3.10765E-01  3.05785E-01  3.03878E-01
   3.04515E-01  3.06722E-01  3.09199E-01  3.10274E-01  3.12168E-01  3.16429E-01  3.22316E-01  3.29684E-01  3.34928E-01  3.36870E-01
   3.42285E-01  3.50993E-01  3.59756E-01  3.69759E-01  3.79787E-01  3.90657E-01  4.04120E-01  4.15255E-01  4.23286E-01  4.31141E-01
   4.37008E-01  4.39970E-01  4.40179E-01  4.36648E-01  4.29256E-01  4.19330E-01  4.08699E-01  3.96667E-01  3.84787E-01  3.78555E-01
   3.73802E-01  3.66652E-01  3.62921E-01  3.61535E-01  3.60075E-01  3.57529E-01  3.51851E-01  3.44332E-01  3.36693E-01  3.26617E-01
   3.15811E-01  3.07464E-01  3.01690E-01  2.99077E-01  3.01490E-01  3.08933E-01  3.20213E-01  3.35343E-01  3.54223E-01  3.73097E-01
   3.87218E-01  3.94993E-01  3.94474E-01  3.85386E-01  3.69732E-01  3.49329E-01  3.25982E-01  3.02331E-01  2.80515E-01  2.62051E-01
   2.48010E-01  2.37695E-01  2.30206E-01  2.28117E-01  2.34049E-01  2.46290E-01  2.64810E-01  2.89897E-01  3.17077E-01  3.44462E-01
   3.72214E-01  3.95936E-01  4.13013E-01  4.23387E-01  4.28329E-01  4.28136E-01  4.20659E-01  4.06919E-01  3.91108E-01  3.73674E-01
   3.52409E-01  3.28689E-01  3.07641E-01  2.90540E-01  2.73429E-01  2.56017E-01  2.43107E-01  2.35010E-01  2.29184E-01  2.25125E-01
   2.23012E-01  2.23341E-01  2.23198E-01  2.20896E-01  2.18854E-01  2.17799E-01  2.16466E-01  2.14187E-01  2.11467E-01  2.08157E-01
   2.03496E-01  1.98091E-01  1.93240E-01  1.89420E-01  1.85352E-01  1.80501E-01  1.76396E-01  1.73175E-01  1.69830E-01  1.66218E-01
   1.62971E-01  1.60725E-01  1.58930E-01  1.57211E-01  1.56588E-01  1.57158E-01  1.58467E-01  1.60543E-01  1.63217E-01  1.66691E-01
   1.70294E-01  1.72232E-01  1.75316E-01  1.80662E-01  1.86985E-01  1.94844E-01  2.02796E-01  2.08078E-01  2.10932E-01  2.11871E-01
   2.09449E-01  2.03362E-01  1.95278E-01  1.87339E-01  1.80019E-01  1.73864E-01  1.69989E-01  1.69514E-01  1.72870E-01  1.78778E-01
