 $SEQPAR
 ECHOT= 35.00
 SEQ= 'PRESS PAR 35
'
 HZPPPM= 127.750690
 NUNFIL= 2048
 DELTAT= 0.000500
 $END
 $NMID
 id='ANONYMOUS ', fmtdat='(2E15.6)'
 volume=27.0
 tramp=1.0
 $END
   7.997722e+00   4.440892e-16
   1.472165e+01   5.645681e-03
   1.383311e+01   1.060987e-02
   1.369151e+01   1.575189e-02
   1.358244e+01   2.083521e-02
   1.349029e+01   2.586733e-02
   1.338416e+01   3.079663e-02
   1.327092e+01   3.562541e-02
   1.314869e+01   4.033982e-02
   1.303737e+01   4.499811e-02
   1.293256e+01   4.959598e-02
   1.283518e+01   5.414484e-02
   1.273105e+01   5.858797e-02
   1.261744e+01   6.290400e-02
   1.248945e+01   6.705565e-02
   1.237632e+01   7.119469e-02
   1.226579e+01   7.526289e-02
   1.216726e+01   7.932457e-02
   1.206496e+01   8.328469e-02
   1.195140e+01   8.708433e-02
   1.182786e+01   9.072032e-02
   1.170702e+01   9.428337e-02
   1.158776e+01   9.776701e-02
   1.147839e+01   1.012465e-01
   1.136862e+01   1.046384e-01
   1.124995e+01   1.078608e-01
   1.112809e+01   1.109605e-01
   1.101262e+01   1.140329e-01
   1.090768e+01   1.171298e-01
   1.080323e+01   1.201516e-01
   1.068794e+01   1.229687e-01
   1.056504e+01   1.256068e-01
   1.044418e+01   1.281758e-01
   1.033476e+01   1.307968e-01
   1.022749e+01   1.333621e-01
   1.011413e+01   1.357634e-01
   1.000160e+01   1.380892e-01
   9.892400e+00   1.403759e-01
   9.777614e+00   1.424975e-01
   9.666451e+00   1.445852e-01
   9.553252e+00   1.465565e-01
   9.454218e+00   1.486638e-01
   9.346105e+00   1.505489e-01
   9.229519e+00   1.522113e-01
   9.113095e+00   1.537870e-01
   9.009618e+00   1.554970e-01
   8.909986e+00   1.571954e-01
   8.803998e+00   1.587029e-01
   8.696148e+00   1.600948e-01
   8.585448e+00   1.613504e-01
   8.468811e+00   1.624073e-01
   8.364874e+00   1.636232e-01
   8.270470e+00   1.649495e-01
   8.172501e+00   1.661310e-01
   8.074177e+00   1.672299e-01
   7.975004e+00   1.682356e-01
   7.866508e+00   1.689650e-01
   7.763635e+00   1.697341e-01
   7.671689e+00   1.706674e-01
   7.576595e+00   1.714589e-01
   7.480657e+00   1.721582e-01
   7.377796e+00   1.726218e-01
   7.284306e+00   1.732294e-01
   7.192686e+00   1.738105e-01
   7.105720e+00   1.744356e-01
   7.018378e+00   1.749847e-01
   6.931588e+00   1.754807e-01
   6.837479e+00   1.757221e-01
   6.739152e+00   1.757813e-01
   6.654471e+00   1.761262e-01
   6.568038e+00   1.763591e-01
   6.482064e+00   1.765383e-01
   6.394053e+00   1.765953e-01
   6.305529e+00   1.765704e-01
   6.227880e+00   1.767863e-01
   6.149720e+00   1.769279e-01
   6.072389e+00   1.770338e-01
   5.996076e+00   1.771104e-01
   5.915332e+00   1.769959e-01
   5.831591e+00   1.767287e-01
   5.749940e+00   1.764613e-01
   5.675126e+00   1.763438e-01
   5.604417e+00   1.762980e-01
   5.536795e+00   1.762963e-01
   5.468060e+00   1.762068e-01
   5.393679e+00   1.758805e-01
   5.319532e+00   1.755049e-01
   5.257978e+00   1.754927e-01
   5.186274e+00   1.750906e-01
   5.114393e+00   1.746275e-01
   5.038520e+00   1.739714e-01
   4.972004e+00   1.735838e-01
   4.907137e+00   1.732033e-01
   4.843187e+00   1.728058e-01
   4.786478e+00   1.726204e-01
   4.721394e+00   1.720862e-01
   4.660164e+00   1.716440e-01
   4.596769e+00   1.710743e-01
   4.535699e+00   1.705433e-01
   4.474588e+00   1.699640e-01
   4.418170e+00   1.695178e-01
   4.361992e+00   1.690376e-01
   4.299988e+00   1.682864e-01
   4.239964e+00   1.675657e-01
   4.187880e+00   1.671159e-01
   4.136788e+00   1.666661e-01
   4.084048e+00   1.661101e-01
   4.028495e+00   1.653980e-01
   3.971849e+00   1.645981e-01
   3.914379e+00   1.637202e-01
   3.862242e+00   1.630234e-01
   3.811290e+00   1.623369e-01
   3.762894e+00   1.617212e-01
   3.714705e+00   1.610774e-01
   3.664024e+00   1.602876e-01
   3.615990e+00   1.595757e-01
   3.566335e+00   1.587547e-01
   3.521299e+00   1.581030e-01
   3.476097e+00   1.574093e-01
   3.429021e+00   1.565953e-01
   3.383040e+00   1.557955e-01
   3.336355e+00   1.549278e-01
   3.294477e+00   1.542493e-01
   3.254957e+00   1.536500e-01
   3.211808e+00   1.528477e-01
   3.170723e+00   1.521112e-01
   3.122885e+00   1.510166e-01
   3.080169e+00   1.501349e-01
   3.041281e+00   1.494086e-01
   3.004492e+00   1.487562e-01
   2.962712e+00   1.478267e-01
   2.920030e+00   1.468196e-01
   2.881535e+00   1.459920e-01
   2.843785e+00   1.451728e-01
   2.803625e+00   1.442006e-01
   2.768560e+00   1.434617e-01
   2.733190e+00   1.426799e-01
   2.695181e+00   1.417321e-01
   2.653583e+00   1.405650e-01
   2.619512e+00   1.397677e-01
   2.587970e+00   1.390800e-01
   2.553266e+00   1.381970e-01
   2.522883e+00   1.375229e-01
   2.484958e+00   1.364114e-01
   2.449579e+00   1.354116e-01
   2.416197e+00   1.344956e-01
   2.382911e+00   1.335595e-01
   2.351545e+00   1.327061e-01
   2.318991e+00   1.317612e-01
   2.289369e+00   1.309589e-01
   2.258147e+00   1.300417e-01
   2.226326e+00   1.290659e-01
   2.196726e+00   1.281952e-01
   2.167463e+00   1.273215e-01
   2.136699e+00   1.263366e-01
   2.106382e+00   1.253547e-01
   2.076732e+00   1.243894e-01
   2.045341e+00   1.232964e-01
   2.017420e+00   1.223898e-01
   1.990925e+00   1.215488e-01
   1.963209e+00   1.206124e-01
   1.934746e+00   1.196085e-01
   1.908846e+00   1.187422e-01
   1.882118e+00   1.178042e-01
   1.855670e+00   1.168631e-01
   1.829819e+00   1.159397e-01
   1.803738e+00   1.149817e-01
   1.776348e+00   1.139197e-01
   1.749318e+00   1.128599e-01
   1.726010e+00   1.120208e-01
   1.705724e+00   1.113611e-01
   1.684178e+00   1.106031e-01
   1.657680e+00   1.095014e-01
   1.633305e+00   1.085203e-01
   1.605750e+00   1.073081e-01
   1.581725e+00   1.063119e-01
   1.561191e+00   1.055331e-01
   1.539407e+00   1.046537e-01
   1.517495e+00   1.037486e-01
   1.492955e+00   1.026461e-01
   1.471652e+00   1.017485e-01
   1.451464e+00   1.009120e-01
   1.433175e+00   1.001928e-01
   1.413850e+00   9.938669e-02
   1.393323e+00   9.848073e-02
   1.368459e+00   9.725078e-02
   1.345563e+00   9.614225e-02
   1.325292e+00   9.520474e-02
   1.307920e+00   9.446098e-02
   1.290679e+00   9.371337e-02
   1.272344e+00   9.287257e-02
   1.253175e+00   9.195655e-02
   1.231805e+00   9.086342e-02
   1.214002e+00   9.001826e-02
   1.196993e+00   8.921866e-02
   1.178140e+00   8.826772e-02
   1.160312e+00   8.737953e-02
   1.141238e+00   8.638330e-02
   1.123113e+00   8.544458e-02
   1.106079e+00   8.457524e-02
   1.090157e+00   8.377831e-02
   1.074517e+00   8.299091e-02
   1.057124e+00   8.205537e-02
   1.041547e+00   8.124815e-02
   1.024394e+00   8.030536e-02
   1.007302e+00   7.935416e-02
   9.914983e-01   7.849173e-02
   9.763105e-01   7.766617e-02
   9.614940e-01   7.685858e-02
   9.461966e-01   7.600094e-02
   9.322967e-01   7.524431e-02
   9.189615e-01   7.452277e-02
   9.043838e-01   7.368972e-02
   8.901391e-01   7.287269e-02
   8.731746e-01   7.182098e-02
   8.575673e-01   7.086835e-02
   8.442123e-01   7.009068e-02
   8.329979e-01   6.948127e-02
   8.198320e-01   6.869968e-02
   8.069473e-01   6.793163e-02
   7.918035e-01   6.696258e-02
   7.781612e-01   6.610942e-02
   7.651290e-01   6.529781e-02
   7.532933e-01   6.457872e-02
   7.436492e-01   6.403924e-02
   7.315861e-01   6.328307e-02
   7.172016e-01   6.231592e-02
   7.052235e-01   6.154766e-02
   6.940294e-01   6.083890e-02
   6.833911e-01   6.017044e-02
   6.725143e-01   5.947270e-02
   6.614049e-01   5.874589e-02
   6.492504e-01   5.791729e-02
   6.377877e-01   5.714128e-02
   6.265068e-01   5.637279e-02
   6.163778e-01   5.569969e-02
   6.074975e-01   5.513210e-02
   5.992416e-01   5.461456e-02
   5.879831e-01   5.381583e-02
   5.779959e-01   5.312526e-02
   5.668739e-01   5.232225e-02
   5.588381e-01   5.179669e-02
   5.507786e-01   5.126273e-02
   5.403217e-01   5.049848e-02
   5.305814e-01   4.979342e-02
   5.193794e-01   4.894309e-02
   5.111349e-01   4.836394e-02
   5.036927e-01   4.785465e-02
   4.961558e-01   4.733059e-02
   4.875166e-01   4.669512e-02
   4.775175e-01   4.592221e-02
   4.684996e-01   4.523630e-02
   4.596186e-01   4.455670e-02
   4.518446e-01   4.397799e-02
   4.442630e-01   4.341206e-02
   4.361021e-01   4.278345e-02
   4.289377e-01   4.224668e-02
   4.212193e-01   4.164958e-02
   4.150604e-01   4.120134e-02
   4.086062e-01   4.071891e-02
   4.017180e-01   4.018807e-02
   3.940601e-01   3.957460e-02
   3.851151e-01   3.882547e-02
   3.769047e-01   3.814375e-02
   3.713026e-01   3.772066e-02
   3.656857e-01   3.729173e-02
   3.587601e-01   3.672449e-02
   3.523140e-01   3.620116e-02
   3.447118e-01   3.555362e-02
   3.397489e-01   3.517343e-02
   3.337243e-01   3.467908e-02
   3.282676e-01   3.423929e-02
   3.225200e-01   3.376483e-02
   3.156364e-01   3.316657e-02
   3.079818e-01   3.248164e-02
   3.032833e-01   3.210372e-02
   2.981345e-01   3.167432e-02
   2.939302e-01   3.134164e-02
   2.877767e-01   3.079713e-02
   2.822792e-01   3.031829e-02
   2.758499e-01   2.973476e-02
   2.697663e-01   2.918365e-02
   2.663591e-01   2.891840e-02
   2.615211e-01   2.849463e-02
   2.571080e-01   2.811356e-02
   2.510834e-01   2.755224e-02
   2.463146e-01   2.712455e-02
   2.424518e-01   2.679328e-02
   2.383346e-01   2.643081e-02
   2.340125e-01   2.604234e-02
   2.302185e-01   2.570951e-02
   2.252685e-01   2.524420e-02
   2.194938e-01   2.468230e-02
   2.158366e-01   2.435487e-02
   2.118959e-01   2.399250e-02
   2.092433e-01   2.377343e-02
   2.056499e-01   2.344504e-02
   2.011649e-01   2.301189e-02
   1.957057e-01   2.246343e-02
   1.924955e-01   2.216976e-02
   1.902318e-01   2.198297e-02
   1.875223e-01   2.174274e-02
   1.838185e-01   2.138474e-02
   1.786859e-01   2.085709e-02
   1.754361e-01   2.054596e-02
   1.734378e-01   2.037936e-02
   1.704119e-01   2.009006e-02
   1.674170e-01   1.980209e-02
   1.645698e-01   1.952932e-02
   1.597191e-01   1.901581e-02
   1.572389e-01   1.878168e-02
   1.539179e-01   1.844486e-02
   1.518552e-01   1.825675e-02
   1.490962e-01   1.798306e-02
   1.460577e-01   1.767341e-02
   1.430077e-01   1.736000e-02
