 $SEQPAR
 ECHOT= 35.00
 SEQ= 'PRESS PAR 35
'
 HZPPPM= 127.750896
 NUNFIL= 2048
 DELTAT= 0.000500
 $END
 $NMID
 id='ANONYMOUS ', fmtdat='(2E15.6)'
 volume=27.0
 tramp=1.0
 $END
   9.369964e+00  -0.000000e+00
   1.728170e+01   6.627448e-03
   1.626470e+01   1.247487e-02
   1.608038e+01   1.850025e-02
   1.593603e+01   2.444558e-02
   1.584973e+01   3.039151e-02
   1.574664e+01   3.623262e-02
   1.561227e+01   4.191071e-02
   1.546011e+01   4.743118e-02
   1.534222e+01   5.295322e-02
   1.523619e+01   5.843035e-02
   1.512256e+01   6.379409e-02
   1.499022e+01   6.898464e-02
   1.486269e+01   7.409762e-02
   1.472597e+01   7.906351e-02
   1.459354e+01   8.394919e-02
   1.446357e+01   8.874846e-02
   1.434578e+01   9.352750e-02
   1.422730e+01   9.821141e-02
   1.409875e+01   1.027311e-01
   1.395530e+01   1.070379e-01
   1.380368e+01   1.111689e-01
   1.366226e+01   1.152698e-01
   1.353136e+01   1.193549e-01
   1.339406e+01   1.232808e-01
   1.324416e+01   1.269807e-01
   1.309352e+01   1.305582e-01
   1.294943e+01   1.340880e-01
   1.282126e+01   1.376783e-01
   1.268584e+01   1.410896e-01
   1.253452e+01   1.442142e-01
   1.238703e+01   1.472682e-01
   1.224395e+01   1.502634e-01
   1.210463e+01   1.531964e-01
   1.196775e+01   1.560544e-01
   1.183312e+01   1.588376e-01
   1.169244e+01   1.614341e-01
   1.155386e+01   1.639524e-01
   1.141347e+01   1.663383e-01
   1.128428e+01   1.687837e-01
   1.115274e+01   1.710942e-01
   1.102555e+01   1.733724e-01
   1.089742e+01   1.755377e-01
   1.076775e+01   1.775794e-01
   1.062833e+01   1.793573e-01
   1.050811e+01   1.813594e-01
   1.038504e+01   1.832192e-01
   1.026529e+01   1.850445e-01
   1.013055e+01   1.865019e-01
   1.000662e+01   1.880592e-01
   9.879694e+00   1.894640e-01
   9.760559e+00   1.909238e-01
   9.636345e+00   1.921911e-01
   9.529001e+00   1.937060e-01
   9.413657e+00   1.949729e-01
   9.293005e+00   1.960393e-01
   9.175300e+00   1.970766e-01
   9.059006e+00   1.980544e-01
   8.944838e+00   1.989903e-01
   8.836580e+00   1.999725e-01
   8.720759e+00   2.006976e-01
   8.601978e+00   2.012646e-01
   8.490346e+00   2.019105e-01
   8.385342e+00   2.026309e-01
   8.284478e+00   2.033725e-01
   8.188132e+00   2.041494e-01
   8.083131e+00   2.046333e-01
   7.979889e+00   2.050818e-01
   7.872080e+00   2.053321e-01
   7.767073e+00   2.055738e-01
   7.668394e+00   2.059049e-01
   7.573792e+00   2.062714e-01
   7.477725e+00   2.065249e-01
   7.384837e+00   2.067936e-01
   7.288190e+00   2.068845e-01
   7.197058e+00   2.070599e-01
   7.112464e+00   2.073560e-01
   7.025553e+00   2.075188e-01
   6.935331e+00   2.075159e-01
   6.833605e+00   2.070951e-01
   6.749167e+00   2.071268e-01
   6.666948e+00   2.071628e-01
   6.585234e+00   2.071515e-01
   6.502961e+00   2.070598e-01
   6.422942e+00   2.069777e-01
   6.340924e+00   2.067689e-01
   6.258381e+00   2.064799e-01
   6.174988e+00   2.060993e-01
   6.094838e+00   2.057641e-01
   6.013019e+00   2.053105e-01
   5.928442e+00   2.046989e-01
   5.847584e+00   2.041523e-01
   5.771459e+00   2.037106e-01
   5.703822e+00   2.035134e-01
   5.636772e+00   2.032855e-01
   5.565438e+00   2.028500e-01
   5.492020e+00   2.022831e-01
   5.417488e+00   2.016183e-01
   5.345487e+00   2.009916e-01
   5.280011e+00   2.005574e-01
   5.212827e+00   2.000075e-01
   5.144308e+00   1.993543e-01
   5.075563e+00   1.986397e-01
   5.009566e+00   1.979809e-01
   4.944549e+00   1.973105e-01
   4.886465e+00   1.968697e-01
   4.825200e+00   1.962549e-01
   4.760763e+00   1.954628e-01
   4.699047e+00   1.947341e-01
   4.630928e+00   1.936901e-01
   4.570467e+00   1.929172e-01
   4.512515e+00   1.922047e-01
   4.461916e+00   1.917638e-01
   4.403579e+00   1.909484e-01
   4.345218e+00   1.900873e-01
   4.288289e+00   1.892446e-01
   4.231154e+00   1.883490e-01
   4.178464e+00   1.876092e-01
   4.123791e+00   1.867391e-01
   4.069467e+00   1.858429e-01
   4.015074e+00   1.849019e-01
   3.963020e+00   1.840278e-01
   3.918246e+00   1.834546e-01
   3.871894e+00   1.827724e-01
   3.820939e+00   1.818357e-01
   3.768550e+00   1.807911e-01
   3.718140e+00   1.798020e-01
   3.668913e+00   1.788317e-01
   3.620913e+00   1.778840e-01
   3.578359e+00   1.771691e-01
   3.531292e+00   1.761964e-01
   3.485644e+00   1.752588e-01
   3.437193e+00   1.741442e-01
   3.391832e+00   1.731501e-01
   3.350706e+00   1.723390e-01
   3.310959e+00   1.715678e-01
   3.267567e+00   1.705758e-01
   3.223417e+00   1.695106e-01
   3.179336e+00   1.684151e-01
   3.138718e+00   1.674706e-01
   3.101564e+00   1.666811e-01
   3.066139e+00   1.659566e-01
   3.025781e+00   1.649359e-01
   2.987356e+00   1.639904e-01
   2.943937e+00   1.627394e-01
   2.904649e+00   1.616849e-01
   2.864522e+00   1.605532e-01
   2.829469e+00   1.596771e-01
   2.793407e+00   1.587167e-01
   2.756765e+00   1.576954e-01
   2.721146e+00   1.567048e-01
   2.685855e+00   1.557060e-01
   2.655593e+00   1.549735e-01
   2.621790e+00   1.540097e-01
   2.587178e+00   1.529721e-01
   2.551820e+00   1.518636e-01
   2.517463e+00   1.507878e-01
   2.482146e+00   1.496277e-01
   2.448971e+00   1.485705e-01
   2.422068e+00   1.478707e-01
   2.390652e+00   1.468729e-01
   2.358003e+00   1.457748e-01
   2.326179e+00   1.447029e-01
   2.293465e+00   1.435509e-01
   2.266593e+00   1.427416e-01
   2.236864e+00   1.417306e-01
   2.206681e+00   1.406678e-01
   2.177833e+00   1.396675e-01
   2.151048e+00   1.387780e-01
   2.122634e+00   1.377623e-01
   2.095625e+00   1.368164e-01
   2.067475e+00   1.357749e-01
   2.038943e+00   1.346865e-01
   2.012868e+00   1.337394e-01
   1.982732e+00   1.325008e-01
   1.956523e+00   1.315030e-01
   1.930997e+00   1.305312e-01
   1.905424e+00   1.295366e-01
   1.881318e+00   1.286226e-01
   1.855477e+00   1.275708e-01
   1.831592e+00   1.266344e-01
   1.806123e+00   1.255695e-01
   1.784167e+00   1.247306e-01
   1.761145e+00   1.237998e-01
   1.735822e+00   1.226887e-01
   1.709615e+00   1.214953e-01
   1.685113e+00   1.204036e-01
   1.663199e+00   1.194788e-01
   1.642406e+00   1.186183e-01
   1.620192e+00   1.176385e-01
   1.596154e+00   1.165086e-01
   1.574008e+00   1.154989e-01
   1.550023e+00   1.143366e-01
   1.528605e+00   1.133461e-01
   1.508503e+00   1.124372e-01
   1.487785e+00   1.114667e-01
   1.466196e+00   1.104147e-01
   1.446387e+00   1.094808e-01
   1.425556e+00   1.084539e-01
   1.405725e+00   1.074874e-01
   1.386991e+00   1.065900e-01
   1.367333e+00   1.056067e-01
   1.348258e+00   1.046536e-01
   1.327897e+00   1.035855e-01
   1.308672e+00   1.025908e-01
   1.289971e+00   1.016225e-01
   1.271892e+00   1.006890e-01
   1.253307e+00   9.970140e-02
   1.235918e+00   9.879513e-02
   1.217234e+00   9.777137e-02
   1.202290e+00   9.703512e-02
   1.186139e+00   9.618938e-02
   1.168001e+00   9.516937e-02
   1.150041e+00   9.415003e-02
   1.133368e+00   9.322262e-02
   1.116264e+00   9.224671e-02
   1.099427e+00   9.127986e-02
   1.086020e+00   9.058609e-02
   1.070611e+00   8.971428e-02
   1.054393e+00   8.876249e-02
   1.039351e+00   8.789757e-02
   1.023539e+00   8.695575e-02
   1.008207e+00   8.604259e-02
   9.938339e-01   8.519991e-02
   9.813010e-01   8.450459e-02
   9.683507e-01   8.376350e-02
   9.535940e-01   8.285547e-02
   9.403206e-01   8.206552e-02
   9.272928e-01   8.128687e-02
   9.137623e-01   8.045391e-02
   9.014172e-01   7.971534e-02
   8.863152e-01   7.872239e-02
   8.730544e-01   7.788203e-02
   8.592344e-01   7.698134e-02
   8.478495e-01   7.628911e-02
   8.363765e-01   7.558012e-02
   8.243795e-01   7.481474e-02
   8.120610e-01   7.401080e-02
   7.988466e-01   7.311536e-02
   7.878432e-01   7.241294e-02
   7.749262e-01   7.152539e-02
   7.632626e-01   7.074406e-02
   7.526333e-01   7.004999e-02
   7.418614e-01   6.933439e-02
   7.315246e-01   6.865131e-02
   7.209809e-01   6.794076e-02
   7.100184e-01   6.718243e-02
   7.005534e-01   6.655792e-02
   6.912445e-01   6.594100e-02
   6.802842e-01   6.515872e-02
   6.692262e-01   6.435857e-02
   6.594225e-01   6.367100e-02
   6.485101e-01   6.286837e-02
   6.404973e-01   6.233953e-02
   6.313512e-01   6.169377e-02
   6.209816e-01   6.092090e-02
   6.119418e-01   6.027101e-02
   6.033339e-01   5.965683e-02
   5.946918e-01   5.903261e-02
   5.860256e-01   5.839932e-02
   5.769319e-01   5.771656e-02
   5.677939e-01   5.702232e-02
   5.581475e-01   5.626977e-02
   5.505021e-01   5.571226e-02
   5.433164e-01   5.519556e-02
   5.357019e-01   5.462956e-02
   5.273278e-01   5.397993e-02
   5.189625e-01   5.332473e-02
   5.115735e-01   5.276376e-02
   5.029464e-01   5.206889e-02
   4.963677e-01   5.158022e-02
   4.892703e-01   5.103235e-02
   4.808991e-01   5.034565e-02
   4.729390e-01   4.969567e-02
   4.667687e-01   4.922829e-02
   4.597318e-01   4.866441e-02
   4.528721e-01   4.811391e-02
   4.463540e-01   4.759453e-02
   4.396816e-01   4.705359e-02
   4.324623e-01   4.644876e-02
   4.253033e-01   4.584483e-02
   4.190104e-01   4.532907e-02
   4.134555e-01   4.488854e-02
   4.064191e-01   4.428232e-02
   4.012750e-01   4.387754e-02
   3.940207e-01   4.323724e-02
   3.886225e-01   4.279571e-02
   3.822056e-01   4.223743e-02
   3.775298e-01   4.186727e-02
   3.722705e-01   4.142854e-02
   3.655368e-01   4.082110e-02
   3.590871e-01   4.024027e-02
   3.531715e-01   3.971449e-02
   3.487430e-01   3.935194e-02
   3.421689e-01   3.874302e-02
   3.382186e-01   3.842712e-02
   3.316218e-01   3.780644e-02
   3.271954e-01   3.742892e-02
   3.221642e-01   3.697855e-02
   3.169903e-01   3.650785e-02
   3.115160e-01   3.599843e-02
   3.066517e-01   3.555550e-02
   3.018006e-01   3.511032e-02
   2.967070e-01   3.463309e-02
   2.923644e-01   3.423985e-02
   2.882536e-01   3.387049e-02
   2.838613e-01   3.346474e-02
   2.795269e-01   3.306245e-02
   2.742932e-01   3.255007e-02
   2.718910e-01   3.237075e-02
   2.674371e-01   3.194450e-02
   2.640722e-01   3.164529e-02
   2.592228e-01   3.116500e-02
   2.548872e-01   3.074292e-02
   2.511607e-01   3.039118e-02
   2.484691e-01   3.016217e-02
