jMRUI Data Textfile

Filename: /Users/Georg/Documents/MATLAB/osprey/exampledata/nifti-mrs/derivatives/jMRUIFiles/ses-01_mrs_sub-01_ses-01_SVS.nii_jMRUI_A.TXT

PointsInDataset: 2048
DatasetsInFile: 1
SamplingInterval: 1.666000E-01
ZeroOrderPhase: 0E+00
BeginTime: 0E+00
TransmitterFrequency: 2.972199E+08
MagneticField: 6.980763E+00
TypeOfNucleus: 0E+00
NameOfPatient: No Name
Spectrometer: TrioTim
AdditionalInfo: jnear


Signal and FFT
sig(real)	sig(imag)	fft(real)	fft(imag)
Signal 1 out of 1 in file
0.00003702	-0.00001367	-0.00001913	-0.00001549
0.00004581	-0.00003784	-0.00002506	-0.00000690
0.00000762	-0.00004624	-0.00003692	-0.00000677
-0.00001433	-0.00003541	-0.00000750	0.00001088
-0.00002355	-0.00001599	-0.00001246	-0.00000183
-0.00001336	-0.00000307	-0.00000003	0.00000302
-0.00000405	-0.00000043	-0.00002175	0.00001724
0.00000202	-0.00000453	-0.00000765	0.00001069
-0.00000219	-0.00000854	-0.00001159	0.00000643
-0.00000688	-0.00000955	-0.00001653	0.00001018
-0.00001256	-0.00000754	-0.00001968	0.00000547
-0.00001300	-0.00000263	-0.00000030	-0.00000042
-0.00001266	0.00000325	-0.00001311	0.00000885
-0.00000810	0.00000848	-0.00000008	0.00000856
-0.00000218	0.00000967	0.00000081	0.00000539
0.00000438	0.00000579	-0.00000019	0.00001199
0.00000499	-0.00000189	-0.00000144	0.00001255
0.00000088	-0.00000702	-0.00000358	0.00001115
-0.00000606	-0.00000550	-0.00000726	0.00001254
-0.00000943	0.00000099	-0.00000871	0.00001289
-0.00000786	0.00000816	-0.00000733	0.00001599
-0.00000083	0.00001058	0.00000526	0.00000916
0.00000418	0.00000765	-0.00000285	0.00001035
0.00000709	0.00000216	0.00001591	0.00002201
0.00000633	-0.00000255	-0.00000227	0.00001483
0.00000415	-0.00000505	-0.00000660	0.00001622
0.00000063	-0.00000508	0.00000459	-0.00000008
-0.00000196	-0.00000371	-0.00001465	-0.00000052
-0.00000366	-0.00000202	-0.00000215	0.00001468
-0.00000201	-0.00000038	-0.00000541	-0.00000356
0.00000007	-0.00000062	-0.00000165	-0.00000107
0.00000140	-0.00000278	-0.00001542	0.00001174
-0.00000201	-0.00000522	0.00000158	0.00002025
-0.00000627	-0.00000429	0.00000805	0.00001379
-0.00000990	0.00000072	-0.00000191	-0.00000794
-0.00000773	0.00000671	0.00000750	0.00001853
-0.00000095	0.00000864	-0.00000432	0.00001699
0.00000579	0.00000579	0.00000633	0.00002216
0.00000729	-0.00000027	-0.00001043	0.00000911
0.00000386	-0.00000476	0.00000032	0.00000968
-0.00000179	-0.00000545	-0.00000449	0.00002210
-0.00000532	-0.00000259	-0.00000513	0.00001603
-0.00000570	0.00000053	0.00001242	0.00000758
-0.00000356	0.00000256	0.00000278	0.00000495
-0.00000176	0.00000338	0.00000280	0.00001487
-0.00000012	0.00000389	0.00000495	0.00001032
0.00000111	0.00000314	-0.00000187	0.00000973
0.00000161	0.00000109	0.00000515	0.00001376
0.00000001	-0.00000113	-0.00000291	0.00001181
-0.00000253	-0.00000068	0.00001254	-0.00000111
-0.00000376	0.00000219	-0.00000256	0.00001122
-0.00000158	0.00000656	-0.00000060	0.00000950
0.00000261	0.00000738	-0.00000431	0.00000456
0.00000675	0.00000376	0.00000283	0.00000630
0.00000590	-0.00000196	-0.00000697	0.00000106
0.00000210	-0.00000532	0.00000685	0.00001592
-0.00000260	-0.00000365	0.00000952	0.00000250
-0.00000321	0.00000141	0.00000530	0.00001666
-0.00000035	0.00000543	0.00000344	0.00000642
0.00000437	0.00000516	-0.00000967	0.00000791
0.00000703	0.00000146	0.00000515	0.00000461
0.00000709	-0.00000369	0.00000209	0.00000425
0.00000391	-0.00000744	-0.00000125	0.00001590
-0.00000056	-0.00000844	0.00000104	0.00002133
-0.00000517	-0.00000601	0.00000239	0.00001394
-0.00000719	-0.00000177	-0.00000165	0.00000429
-0.00000732	0.00000310	-0.00000411	0.00002340
-0.00000353	0.00000645	-0.00000294	0.00001826
0.00000151	0.00000638	0.00000785	0.00000420
0.00000490	0.00000320	0.00000146	0.00000958
0.00000419	-0.00000022	-0.00000326	0.00002368
0.00000182	-0.00000156	0.00000737	0.00001308
-0.00000059	-0.00000098	-0.00000764	0.00001794
-0.00000029	0.00000086	-0.00001055	0.00002009
0.00000208	0.00000078	0.00000320	0.00001199
0.00000351	-0.00000124	0.00000602	0.00001977
0.00000270	-0.00000392	0.00000895	0.00001201
-0.00000045	-0.00000429	0.00001366	0.00002326
-0.00000350	-0.00000299	-0.00000763	0.00000748
-0.00000482	-0.00000005	0.00000346	0.00000842
-0.00000382	0.00000217	-0.00000158	0.00000773
-0.00000158	0.00000356	-0.00000199	0.00001165
0.00000083	0.00000376	0.00000711	0.00000382
0.00000331	0.00000315	-0.00000825	0.00000731
0.00000539	0.00000154	-0.00000345	0.00002338
0.00000549	-0.00000151	0.00001121	0.00000963
0.00000392	-0.00000538	-0.00000160	0.00000962
0.00000025	-0.00000661	0.00000478	0.00000798
-0.00000336	-0.00000537	0.00000750	0.00001867
-0.00000440	-0.00000224	-0.00000540	0.00001690
-0.00000331	0.00000062	0.00000557	0.00000973
-0.00000138	0.00000081	-0.00000605	0.00001148
-0.00000069	-0.00000065	0.00000044	0.00001085
-0.00000170	-0.00000165	0.00000129	0.00000763
-0.00000322	-0.00000077	0.00000645	0.00001922
-0.00000346	0.00000211	0.00001030	0.00001142
-0.00000173	0.00000409	0.00001132	0.00000838
0.00000116	0.00000418	0.00000234	0.00002299
0.00000304	0.00000233	-0.00000005	0.00000470
0.00000309	-0.00000034	0.00000777	0.00001667
0.00000161	-0.00000244	0.00000763	0.00000948
-0.00000055	-0.00000312	0.00000187	0.00000298
-0.00000284	-0.00000183	0.00001555	0.00001691
-0.00000348	0.00000041	0.00000330	0.00001637
-0.00000285	0.00000279	0.00001149	0.00001825
-0.00000119	0.00000415	0.00000974	0.00000535
0.00000150	0.00000357	0.00001188	0.00002075
0.00000306	0.00000202	0.00000264	-0.00000193
0.00000310	0.00000072	0.00000495	0.00001818
0.00000214	0.00000035	0.00000469	0.00001309
0.00000162	0.00000083	-0.00000038	0.00001644
0.00000283	0.00000078	0.00001732	0.00001032
0.00000417	-0.00000031	0.00000644	0.00000876
0.00000461	-0.00000278	0.00000539	0.00000596
0.00000296	-0.00000529	0.00000883	0.00000811
-0.00000009	-0.00000674	0.00001128	0.00001405
-0.00000380	-0.00000602	-0.00000106	0.00001962
-0.00000655	-0.00000333	0.00000371	0.00000267
-0.00000713	0.00000081	0.00000881	0.00000785
-0.00000525	0.00000414	0.00000410	0.00001504
-0.00000158	0.00000570	0.00001630	0.00000349
0.00000212	0.00000473	0.00000310	0.00001765
0.00000384	0.00000149	0.00001259	0.00001276
0.00000332	-0.00000146	0.00000412	0.00001026
0.00000012	-0.00000336	0.00000676	0.00001223
-0.00000264	-0.00000223	0.00000024	0.00000752
-0.00000385	0.00000026	0.00001249	0.00002358
-0.00000277	0.00000313	0.00001145	0.00001297
-0.00000016	0.00000393	0.00001092	0.00001727
0.00000219	0.00000274	-0.00000145	0.00000814
0.00000226	0.00000071	0.00000790	0.00000971
0.00000101	-0.00000068	0.00000319	0.00001671
-0.00000060	-0.00000026	0.00001761	0.00001044
-0.00000071	0.00000115	0.00001259	0.00002208
0.00000033	0.00000256	0.00000602	0.00001129
0.00000227	0.00000337	0.00001583	0.00001282
0.00000376	0.00000157	0.00000186	0.00000375
0.00000452	-0.00000083	0.00001273	0.00000440
0.00000393	-0.00000297	0.00000835	0.00002120
0.00000200	-0.00000439	0.00000150	0.00002474
-0.00000046	-0.00000432	0.00000140	0.00001471
-0.00000223	-0.00000314	0.00000388	0.00001788
-0.00000277	-0.00000132	0.00001774	0.00001168
-0.00000190	0.00000038	0.00000405	0.00001347
-0.00000051	0.00000086	0.00000655	0.00001463
0.00000043	-0.00000016	0.00001969	0.00000457
-0.00000009	-0.00000130	0.00000787	0.00001190
-0.00000142	-0.00000125	0.00000379	0.00000861
-0.00000240	-0.00000043	-0.00000410	0.00000860
-0.00000199	0.00000144	0.00000949	0.00002353
-0.00000097	0.00000223	0.00000807	0.00001638
0.00000066	0.00000190	0.00001567	0.00001916
0.00000142	0.00000090	0.00000484	0.00000511
0.00000081	-0.00000044	0.00000667	0.00001721
-0.00000031	-0.00000062	0.00001337	0.00001231
-0.00000153	0.00000034	0.00000279	0.00000563
-0.00000138	0.00000177	0.00001290	0.00001065
0.00000007	0.00000298	0.00000448	0.00001637
0.00000190	0.00000271	0.00001458	0.00001997
0.00000327	0.00000166	0.00000634	0.00000950
0.00000394	-0.00000039	0.00000874	0.00001962
0.00000263	-0.00000246	0.00000688	0.00001172
0.00000098	-0.00000330	0.00001415	0.00002023
-0.00000133	-0.00000265	0.00001787	0.00001464
-0.00000186	-0.00000146	0.00001260	0.00001377
-0.00000119	0.00000033	0.00001458	0.00001771
-0.00000011	0.00000063	0.00000837	0.00000643
0.00000092	0.00000021	0.00001164	0.00001571
0.00000075	-0.00000095	0.00000160	0.00001644
-0.00000026	-0.00000126	0.00001209	0.00001637
-0.00000161	-0.00000094	0.00000158	0.00001650
-0.00000194	0.00000049	0.00000832	0.00002002
-0.00000091	0.00000131	-0.00000423	0.00000942
0.00000051	0.00000187	0.00000457	0.00001090
0.00000152	0.00000088	0.00001711	0.00000922
0.00000162	-0.00000085	0.00000456	0.00001615
0.00000022	-0.00000214	0.00001291	0.00002279
-0.00000101	-0.00000207	0.00001234	0.00001591
-0.00000241	-0.00000085	0.00000278	0.00001446
-0.00000220	0.00000124	0.00000539	-0.00000490
-0.00000091	0.00000289	0.00000044	0.00001283
0.00000121	0.00000277	0.00001028	0.00001908
0.00000269	0.00000183	0.00000376	0.00000913
0.00000293	-0.00000056	-0.00000094	0.00000894
0.00000211	-0.00000238	0.00001222	0.00001704
-0.00000018	-0.00000294	-0.00000413	0.00000855
-0.00000172	-0.00000229	0.00000404	0.00001538
-0.00000280	-0.00000049	0.00001203	0.00001418
-0.00000188	0.00000131	0.00001598	0.00002450
-0.00000076	0.00000182	0.00001015	0.00002282
0.00000050	0.00000142	0.00000867	0.00001906
0.00000055	0.00000056	0.00000133	0.00001702
0.00000010	0.00000029	0.00000838	0.00001800
-0.00000019	0.00000016	0.00000141	0.00001414
-0.00000059	0.00000093	0.00000157	0.00001079
0.00000045	0.00000221	0.00001122	0.00000567
0.00000157	0.00000195	0.00001533	0.00000409
0.00000305	0.00000081	0.00000145	0.00001483
0.00000316	-0.00000077	0.00002264	0.00001609
0.00000209	-0.00000263	0.00000470	0.00002477
0.00000027	-0.00000351	0.00000116	0.00001501
-0.00000192	-0.00000313	0.00000038	0.00000876
-0.00000316	-0.00000143	0.00000300	0.00002379
-0.00000239	0.00000050	0.00001077	0.00001935
-0.00000177	0.00000151	0.00000221	0.00002569
-0.00000052	0.00000167	0.00000569	0.00002164
0.00000004	0.00000106	0.00000904	0.00001693
0.00000041	0.00000064	0.00001352	0.00002489
0.00000030	0.00000060	0.00000246	0.00001566
