jMRUI Data Textfile

Filename: /Users/Georg/Documents/MATLAB/osprey/exampledata/nifti-mrs/derivatives/jMRUIFiles/ses-01_mrs_sub-01_ses-01_SVS-ref.nii_jMRUI_REF.TXT

PointsInDataset: 2048
DatasetsInFile: 1
SamplingInterval: 1.666000E-01
ZeroOrderPhase: 0E+00
BeginTime: 0E+00
TransmitterFrequency: 2.972199E+08
MagneticField: 6.980763E+00
TypeOfNucleus: 0E+00
NameOfPatient: No Name
Spectrometer: TrioTim
AdditionalInfo: jnear


Signal and FFT
sig(real)	sig(imag)	fft(real)	fft(imag)
Signal 1 out of 1 in file
0.00445716	0.00000000	-0.00122433	-0.00163498
0.00669587	0.00005993	-0.00108261	-0.00026681
0.00591812	0.00010595	-0.00142471	-0.00018773
0.00628054	0.00016868	-0.00137347	-0.00001709
0.00592982	0.00021238	-0.00144727	0.00018786
0.00614462	0.00027516	-0.00122916	-0.00000361
0.00592953	0.00031873	-0.00065013	0.00135402
0.00606048	0.00038020	-0.00042227	0.00118385
0.00588403	0.00042203	-0.00078404	0.00123010
0.00596906	0.00048186	-0.00089214	0.00122985
0.00581935	0.00052224	-0.00079968	0.00137873
0.00587657	0.00058044	-0.00080197	0.00136624
0.00575248	0.00062022	-0.00080500	0.00140114
0.00580058	0.00067797	-0.00074501	0.00139015
0.00569306	0.00071711	-0.00060742	0.00123056
0.00573302	0.00077433	-0.00056383	0.00109851
0.00563437	0.00081242	-0.00058898	0.00107176
0.00565650	0.00086736	-0.00049420	0.00105261
0.00555520	0.00090279	-0.00049679	0.00104197
0.00556820	0.00095613	-0.00050703	0.00103115
0.00547952	0.00099147	-0.00048032	0.00092289
0.00549305	0.00104477	-0.00042630	0.00098387
0.00541198	0.00107963	-0.00045155	0.00108275
0.00542121	0.00113202	-0.00042920	0.00104313
0.00533943	0.00116491	-0.00033361	0.00109572
0.00533803	0.00121475	-0.00027354	0.00106651
0.00525763	0.00124605	-0.00031371	0.00104352
0.00525125	0.00129429	-0.00026949	0.00106380
0.00517783	0.00132546	-0.00017728	0.00101472
0.00516685	0.00137204	-0.00022544	0.00103643
0.00509537	0.00140200	-0.00015901	0.00103606
0.00508944	0.00144948	-0.00014862	0.00106181
0.00501668	0.00147743	-0.00007839	0.00112895
0.00499949	0.00152113	-0.00014848	0.00109252
0.00492466	0.00154665	-0.00013733	0.00111920
0.00491031	0.00159056	-0.00008311	0.00107559
0.00484891	0.00161877	-0.00007432	0.00110439
0.00483980	0.00166402	-0.00005578	0.00106778
0.00477723	0.00169046	-0.00013479	0.00100096
0.00475622	0.00173108	-0.00002249	0.00105367
0.00468346	0.00175223	-0.00001068	0.00103402
0.00466239	0.00179207	0.00004656	0.00109264
0.00459585	0.00181387	-0.00000723	0.00112658
0.00457940	0.00185492	-0.00002128	0.00115731
0.00451578	0.00187638	0.00006039	0.00120213
0.00449556	0.00191533	0.00007298	0.00115876
0.00443283	0.00193566	0.00007024	0.00115056
0.00440887	0.00197237	0.00007174	0.00110411
0.00434587	0.00199105	0.00001201	0.00114743
0.00432133	0.00202680	0.00003923	0.00112734
0.00426052	0.00204500	0.00007860	0.00115390
0.00423597	0.00208007	0.00013976	0.00112029
0.00417850	0.00209847	0.00008690	0.00116239
0.00415409	0.00213298	0.00008816	0.00112575
0.00409620	0.00214980	0.00013196	0.00113601
0.00406656	0.00218088	0.00012383	0.00115193
0.00400228	0.00219276	0.00021758	0.00113710
0.00397080	0.00222194	0.00018116	0.00120379
0.00391549	0.00223725	0.00018643	0.00113747
0.00389055	0.00226942	0.00015933	0.00109992
0.00383762	0.00228483	0.00016703	0.00115030
0.00381076	0.00231528	0.00022888	0.00121660
0.00374995	0.00232454	0.00026379	0.00116410
0.00371813	0.00235114	0.00026598	0.00112098
0.00365632	0.00235812	0.00025297	0.00117301
0.00362304	0.00238284	0.00022963	0.00122663
0.00356694	0.00239195	0.00023337	0.00123397
0.00353742	0.00241833	0.00031877	0.00114027
0.00348649	0.00242959	0.00032643	0.00120998
0.00345892	0.00245666	0.00027434	0.00121304
0.00340515	0.00246462	0.00027536	0.00125240
0.00337092	0.00248611	0.00022824	0.00119735
0.00331560	0.00249144	0.00027623	0.00118305
0.00328480	0.00251461	0.00028221	0.00119903
0.00323354	0.00252158	0.00030709	0.00123571
0.00320399	0.00254499	0.00033769	0.00118726
0.00315144	0.00254958	0.00034261	0.00122531
0.00311456	0.00256620	0.00033863	0.00120067
0.00306164	0.00256894	0.00038686	0.00125893
0.00302449	0.00258425	0.00037564	0.00120488
0.00297350	0.00258708	0.00040693	0.00122596
0.00294230	0.00260657	0.00034063	0.00118006
0.00289440	0.00261074	0.00038077	0.00131218
0.00286317	0.00262942	0.00029283	0.00119026
0.00281455	0.00263159	0.00038257	0.00122556
0.00278407	0.00265019	0.00043447	0.00125449
0.00273230	0.00264793	0.00043098	0.00127236
0.00269913	0.00266305	0.00040219	0.00120610
0.00264571	0.00265748	0.00034333	0.00119824
0.00261171	0.00267072	0.00039661	0.00122790
0.00256294	0.00266821	0.00046378	0.00125831
0.00253042	0.00268200	0.00041771	0.00128189
0.00248576	0.00268236	0.00040597	0.00121864
0.00245167	0.00269352	0.00042122	0.00128604
0.00240552	0.00269081	0.00044191	0.00124081
0.00237229	0.00270193	0.00045072	0.00119066
0.00232707	0.00269877	0.00047651	0.00119689
0.00229504	0.00271029	0.00047358	0.00128346
0.00225200	0.00270824	0.00040818	0.00122112
0.00221960	0.00271841	0.00041796	0.00128991
0.00217387	0.00271158	0.00047856	0.00132377
0.00213992	0.00271874	0.00046015	0.00131827
0.00209391	0.00270984	0.00052107	0.00129630
0.00206228	0.00271886	0.00042572	0.00133811
0.00201885	0.00271167	0.00056932	0.00132785
0.00198867	0.00272165	0.00045721	0.00133137
0.00194674	0.00271495	0.00055280	0.00136161
0.00191520	0.00272208	0.00045775	0.00128739
0.00187399	0.00271482	0.00054884	0.00129918
0.00184173	0.00271984	0.00050108	0.00134519
0.00180189	0.00271298	0.00050295	0.00139924
0.00176982	0.00271716	0.00056739	0.00130908
0.00172989	0.00270856	0.00056389	0.00139153
0.00169835	0.00271239	0.00054362	0.00134443
0.00165938	0.00270365	0.00052012	0.00134005
0.00162499	0.00270156	0.00059846	0.00132642
0.00158607	0.00269109	0.00056605	0.00134503
0.00155380	0.00269111	0.00060744	0.00134762
0.00151376	0.00267682	0.00055829	0.00127561
0.00148355	0.00267908	0.00052623	0.00140213
0.00144731	0.00266974	0.00057754	0.00137075
0.00141952	0.00267535	0.00054512	0.00139946
0.00138437	0.00266647	0.00054479	0.00138617
0.00135339	0.00266485	0.00057364	0.00133971
0.00131756	0.00265285	0.00056849	0.00134505
0.00128591	0.00264835	0.00058213	0.00139319
0.00124970	0.00263353	0.00054598	0.00142307
0.00121983	0.00263111	0.00057608	0.00144425
0.00118876	0.00262542	0.00062715	0.00137935
0.00115914	0.00262223	0.00062484	0.00135344
0.00112657	0.00261150	0.00060765	0.00144147
0.00109672	0.00260620	0.00064481	0.00140214
0.00106331	0.00259144	0.00064271	0.00140246
0.00103455	0.00258702	0.00064095	0.00138546
0.00100235	0.00257307	0.00069814	0.00145915
0.00097493	0.00257047	0.00069425	0.00140194
0.00094501	0.00256048	0.00065748	0.00137670
0.00091612	0.00255229	0.00060243	0.00137990
0.00088690	0.00254222	0.00063369	0.00138253
0.00085882	0.00253444	0.00064837	0.00148435
0.00082844	0.00251873	0.00061448	0.00140774
0.00080018	0.00250821	0.00064815	0.00148207
0.00077150	0.00249524	0.00063507	0.00145279
0.00074427	0.00248577	0.00063557	0.00145622
0.00071662	0.00247379	0.00061189	0.00141940
0.00069033	0.00246539	0.00065261	0.00146270
0.00066306	0.00245232	0.00066385	0.00148140
0.00063706	0.00244272	0.00072360	0.00154162
0.00060971	0.00242658	0.00067358	0.00145647
0.00058457	0.00241793	0.00065246	0.00148541
0.00055858	0.00240442	0.00070851	0.00150144
0.00053442	0.00239756	0.00069060	0.00149104
0.00050832	0.00238061	0.00070482	0.00146856
0.00048366	0.00236876	0.00071915	0.00148878
0.00045855	0.00235306	0.00063057	0.00153357
0.00043447	0.00234088	0.00068250	0.00148120
0.00041051	0.00232769	0.00070074	0.00147373
0.00038673	0.00231374	0.00066820	0.00150780
0.00036361	0.00230196	0.00074372	0.00146120
0.00034151	0.00229516	0.00066431	0.00151193
0.00031827	0.00227891	0.00071407	0.00147926
0.00029589	0.00226656	0.00069464	0.00149544
0.00027309	0.00224848	0.00074704	0.00154394
0.00025092	0.00223274	0.00074255	0.00151864
0.00022914	0.00221761	0.00075842	0.00145794
0.00020774	0.00220320	0.00074252	0.00148260
0.00018672	0.00218983	0.00074836	0.00151980
0.00016609	0.00217805	0.00070892	0.00161295
0.00014530	0.00216021	0.00076893	0.00148641
0.00012514	0.00214732	0.00069872	0.00152075
0.00010503	0.00213039	0.00070414	0.00157070
0.00008535	0.00211610	0.00071724	0.00152687
0.00006584	0.00209878	0.00071809	0.00156727
0.00004681	0.00208849	0.00074911	0.00158096
0.00002789	0.00207165	0.00070272	0.00155756
0.00000929	0.00206049	0.00069497	0.00157471
-0.00000907	0.00204305	0.00079508	0.00161866
-0.00002711	0.00202417	0.00078486	0.00153814
-0.00004489	0.00200915	0.00077584	0.00158748
-0.00006242	0.00199406	0.00075574	0.00154576
-0.00007954	0.00197542	0.00075724	0.00162171
-0.00009673	0.00196490	0.00073605	0.00158452
-0.00011347	0.00194932	0.00075895	0.00158021
-0.00013007	0.00193580	0.00071349	0.00159603
-0.00014644	0.00192204	0.00077537	0.00157770
-0.00016208	0.00190235	0.00075216	0.00157589
-0.00017740	0.00188285	0.00075899	0.00156662
-0.00019287	0.00186788	0.00079789	0.00158417
-0.00020770	0.00184932	0.00069632	0.00165277
-0.00022278	0.00183533	0.00079413	0.00151971
-0.00023768	0.00182165	0.00078346	0.00154654
-0.00025196	0.00180498	0.00073005	0.00158863
-0.00026577	0.00178695	0.00079859	0.00155307
-0.00027983	0.00177234	0.00077746	0.00161076
-0.00029275	0.00175225	0.00075117	0.00161825
-0.00030696	0.00174125	0.00081314	0.00165904
-0.00032013	0.00172548	0.00071627	0.00164225
-0.00033326	0.00171076	0.00080561	0.00159940
-0.00034579	0.00169414	0.00075078	0.00167885
-0.00035839	0.00167905	0.00083808	0.00168759
-0.00036956	0.00165852	0.00081406	0.00166399
-0.00038127	0.00164168	0.00077311	0.00162002
-0.00039217	0.00162259	0.00075155	0.00159052
-0.00040338	0.00160589	0.00075990	0.00165296
-0.00041430	0.00158905	0.00081183	0.00167803
-0.00042658	0.00157814	0.00082999	0.00167555
-0.00043658	0.00155958	0.00081495	0.00166363
-0.00044801	0.00154695	0.00078542	0.00165698
-0.00045676	0.00152592	0.00080384	0.00166885
-0.00046795	0.00151384	0.00078072	0.00169156
-0.00047687	0.00149514	0.00079860	0.00165040
-0.00048779	0.00148340	0.00089865	0.00167093
-0.00049552	0.00146263	0.00086892	0.00170161
