 $SEQPAR
 ECHOT= 0.01
 SEQ= 'svs_st'
 HZPPPM= 297.219948
 NUNFIL= 2048
 DELTAT= 0.000167
 $END
 $NMID
 id='ANONYMOUS ', fmtdat='(2E15.6)'
 volume=8.0
 tramp=1.0
 $END
   4.457159e-03  -0.000000e+00
   6.695872e-03  -5.993106e-05
   5.918120e-03  -1.059481e-04
   6.280541e-03  -1.686770e-04
   5.929816e-03  -2.123831e-04
   6.144625e-03  -2.751621e-04
   5.929530e-03  -3.187297e-04
   6.060482e-03  -3.801957e-04
   5.884031e-03  -4.220280e-04
   5.969057e-03  -4.818614e-04
   5.819348e-03  -5.222391e-04
   5.876566e-03  -5.804380e-04
   5.752479e-03  -6.202174e-04
   5.800575e-03  -6.779750e-04
   5.693062e-03  -7.171144e-04
   5.733021e-03  -7.743338e-04
   5.634367e-03  -8.124213e-04
   5.656501e-03  -8.673604e-04
   5.555202e-03  -9.027880e-04
   5.568205e-03  -9.561298e-04
   5.479521e-03  -9.914697e-04
   5.493046e-03  -1.044774e-03
   5.411984e-03  -1.079634e-03
   5.421207e-03  -1.132017e-03
   5.339429e-03  -1.164908e-03
   5.338030e-03  -1.214753e-03
   5.257632e-03  -1.246053e-03
   5.251248e-03  -1.294287e-03
   5.177833e-03  -1.325460e-03
   5.166852e-03  -1.372038e-03
   5.095373e-03  -1.401995e-03
   5.089438e-03  -1.449485e-03
   5.016684e-03  -1.477432e-03
   4.999489e-03  -1.521125e-03
   4.924663e-03  -1.546649e-03
   4.910307e-03  -1.590561e-03
   4.848907e-03  -1.618765e-03
   4.839803e-03  -1.664016e-03
   4.777233e-03  -1.690464e-03
   4.756221e-03  -1.731082e-03
   4.683463e-03  -1.752228e-03
   4.662386e-03  -1.792073e-03
   4.595847e-03  -1.813873e-03
   4.579397e-03  -1.854921e-03
   4.515784e-03  -1.876375e-03
   4.495562e-03  -1.915333e-03
   4.432830e-03  -1.935663e-03
   4.408869e-03  -1.972370e-03
   4.345866e-03  -1.991055e-03
   4.321326e-03  -2.026801e-03
   4.260517e-03  -2.044998e-03
   4.235975e-03  -2.080069e-03
   4.178503e-03  -2.098470e-03
   4.154088e-03  -2.132977e-03
   4.096202e-03  -2.149797e-03
   4.066557e-03  -2.180881e-03
   4.002279e-03  -2.192757e-03
   3.970797e-03  -2.221944e-03
   3.915487e-03  -2.237245e-03
   3.890549e-03  -2.269424e-03
   3.837617e-03  -2.284825e-03
   3.810761e-03  -2.315282e-03
   3.749953e-03  -2.324541e-03
   3.718125e-03  -2.351135e-03
   3.656318e-03  -2.358124e-03
   3.623035e-03  -2.382841e-03
   3.566936e-03  -2.391952e-03
   3.537415e-03  -2.418332e-03
   3.486493e-03  -2.429591e-03
   3.458919e-03  -2.456658e-03
   3.405154e-03  -2.464617e-03
   3.370919e-03  -2.486114e-03
   3.315602e-03  -2.491440e-03
   3.284802e-03  -2.514608e-03
   3.233539e-03  -2.521584e-03
   3.203994e-03  -2.544985e-03
   3.151442e-03  -2.549575e-03
   3.114562e-03  -2.566198e-03
   3.061643e-03  -2.568943e-03
   3.024488e-03  -2.584246e-03
   2.973503e-03  -2.587082e-03
   2.942302e-03  -2.606569e-03
   2.894395e-03  -2.610735e-03
   2.863168e-03  -2.629423e-03
   2.814548e-03  -2.631595e-03
   2.784066e-03  -2.650191e-03
   2.732297e-03  -2.647928e-03
   2.699134e-03  -2.663046e-03
   2.645710e-03  -2.657485e-03
   2.611715e-03  -2.670725e-03
   2.562938e-03  -2.668207e-03
   2.530423e-03  -2.681996e-03
   2.485764e-03  -2.682357e-03
   2.451665e-03  -2.693519e-03
   2.405520e-03  -2.690812e-03
   2.372290e-03  -2.701926e-03
   2.327074e-03  -2.698766e-03
   2.295037e-03  -2.710288e-03
   2.251998e-03  -2.708243e-03
   2.219602e-03  -2.718411e-03
   2.173865e-03  -2.711577e-03
   2.139921e-03  -2.718743e-03
   2.093907e-03  -2.709839e-03
   2.062283e-03  -2.718864e-03
   2.018851e-03  -2.711672e-03
   1.988667e-03  -2.721649e-03
   1.946744e-03  -2.714955e-03
   1.915201e-03  -2.722084e-03
   1.873990e-03  -2.714820e-03
   1.841733e-03  -2.719841e-03
   1.801885e-03  -2.712982e-03
   1.769822e-03  -2.717164e-03
   1.729891e-03  -2.708560e-03
   1.698351e-03  -2.712391e-03
   1.659379e-03  -2.703649e-03
   1.624991e-03  -2.701561e-03
   1.586068e-03  -2.691092e-03
   1.553795e-03  -2.691110e-03
   1.513765e-03  -2.676823e-03
   1.483552e-03  -2.679077e-03
   1.447314e-03  -2.669743e-03
   1.419521e-03  -2.675351e-03
   1.384370e-03  -2.666474e-03
   1.353388e-03  -2.664854e-03
   1.317558e-03  -2.652848e-03
   1.285905e-03  -2.648354e-03
   1.249705e-03  -2.633529e-03
   1.219827e-03  -2.631110e-03
   1.188756e-03  -2.625419e-03
   1.159144e-03  -2.622229e-03
   1.126570e-03  -2.611499e-03
   1.096723e-03  -2.606201e-03
   1.063313e-03  -2.591442e-03
   1.034545e-03  -2.587023e-03
   1.002349e-03  -2.573074e-03
   9.749277e-04  -2.570467e-03
   9.450135e-04  -2.560478e-03
   9.161214e-04  -2.552291e-03
   8.869023e-04  -2.542218e-03
   8.588214e-04  -2.534436e-03
   8.284427e-04  -2.518729e-03
   8.001773e-04  -2.508210e-03
   7.715034e-04  -2.495241e-03
   7.442683e-04  -2.485775e-03
   7.166171e-04  -2.473787e-03
   6.903278e-04  -2.465388e-03
   6.630568e-04  -2.452317e-03
   6.370572e-04  -2.442722e-03
   6.097050e-04  -2.426579e-03
   5.845749e-04  -2.417927e-03
   5.585794e-04  -2.404417e-03
   5.344162e-04  -2.397562e-03
   5.083156e-04  -2.380608e-03
   4.836598e-04  -2.368759e-03
   4.585545e-04  -2.353055e-03
   4.344718e-04  -2.340878e-03
   4.105088e-04  -2.327693e-03
   3.867280e-04  -2.313737e-03
   3.636127e-04  -2.301965e-03
   3.415116e-04  -2.295155e-03
   3.182731e-04  -2.278909e-03
   2.958914e-04  -2.266557e-03
   2.730872e-04  -2.248477e-03
   2.509191e-04  -2.232741e-03
   2.291394e-04  -2.217608e-03
   2.077393e-04  -2.203204e-03
   1.867210e-04  -2.189833e-03
   1.660950e-04  -2.178050e-03
   1.453003e-04  -2.160207e-03
   1.251389e-04  -2.147324e-03
   1.050294e-04  -2.130390e-03
   8.534725e-05  -2.116102e-03
   6.583980e-05  -2.098780e-03
   4.681096e-05  -2.088491e-03
   2.788575e-05  -2.071654e-03
   9.292034e-06  -2.060488e-03
  -9.072441e-06  -2.043048e-03
  -2.710693e-05  -2.024171e-03
  -4.489406e-05  -2.009155e-03
  -6.241700e-05  -1.994060e-03
  -7.953658e-05  -1.975417e-03
  -9.673471e-05  -1.964900e-03
  -1.134652e-04  -1.949324e-03
  -1.300720e-04  -1.935798e-03
  -1.464388e-04  -1.922041e-03
  -1.620757e-04  -1.902348e-03
  -1.774022e-04  -1.882849e-03
  -1.928724e-04  -1.867877e-03
  -2.077002e-04  -1.849318e-03
  -2.227798e-04  -1.835327e-03
  -2.376826e-04  -1.821651e-03
  -2.519566e-04  -1.804976e-03
  -2.657669e-04  -1.786954e-03
  -2.798287e-04  -1.772337e-03
  -2.927537e-04  -1.752246e-03
  -3.069607e-04  -1.741251e-03
  -3.201292e-04  -1.725479e-03
  -3.332637e-04  -1.710759e-03
  -3.457917e-04  -1.694136e-03
  -3.583944e-04  -1.679045e-03
  -3.695641e-04  -1.658521e-03
  -3.812661e-04  -1.641682e-03
  -3.921692e-04  -1.622586e-03
  -4.033801e-04  -1.605890e-03
  -4.143043e-04  -1.589051e-03
  -4.265815e-04  -1.578145e-03
  -4.365789e-04  -1.559582e-03
  -4.480119e-04  -1.546952e-03
  -4.567633e-04  -1.525923e-03
  -4.679491e-04  -1.513838e-03
  -4.768724e-04  -1.495145e-03
  -4.877946e-04  -1.483396e-03
  -4.955164e-04  -1.462632e-03
  -5.061102e-04  -1.451037e-03
  -5.127915e-04  -1.428934e-03
  -5.227899e-04  -1.416780e-03
  -5.296698e-04  -1.396803e-03
  -5.389061e-04  -1.383678e-03
  -5.450683e-04  -1.363291e-03
  -5.552822e-04  -1.353566e-03
  -5.634806e-04  -1.339287e-03
  -5.706404e-04  -1.323051e-03
  -5.759127e-04  -1.303079e-03
  -5.844990e-04  -1.291128e-03
  -5.897149e-04  -1.272218e-03
  -5.958264e-04  -1.255821e-03
  -6.007523e-04  -1.237481e-03
  -6.088245e-04  -1.226055e-03
  -6.139205e-04  -1.209031e-03
  -6.213953e-04  -1.197089e-03
  -6.242699e-04  -1.176749e-03
  -6.312966e-04  -1.164694e-03
  -6.343902e-04  -1.145802e-03
  -6.406150e-04  -1.132996e-03
  -6.449476e-04  -1.117201e-03
  -6.519452e-04  -1.106334e-03
  -6.544405e-04  -1.088183e-03
  -6.608553e-04  -1.076907e-03
  -6.632551e-04  -1.059429e-03
  -6.670331e-04  -1.044560e-03
  -6.682226e-04  -1.026060e-03
  -6.737280e-04  -1.014540e-03
  -6.779720e-04  -1.001367e-03
  -6.821441e-04  -9.883574e-04
  -6.845847e-04  -9.731461e-04
  -6.876527e-04  -9.591491e-04
  -6.886411e-04  -9.425964e-04
  -6.933302e-04  -9.313984e-04
  -6.945962e-04  -9.158701e-04
  -6.969434e-04  -9.020809e-04
  -6.991573e-04  -8.883967e-04
  -7.012758e-04  -8.748619e-04
  -7.020123e-04  -8.598959e-04
  -7.052980e-04  -8.483075e-04
  -7.033013e-04  -8.306687e-04
  -7.059206e-04  -8.187883e-04
  -7.054382e-04  -8.035724e-04
  -7.091868e-04  -7.934058e-04
  -7.096160e-04  -7.797270e-04
  -7.120306e-04  -7.684495e-04
  -7.105161e-04  -7.531802e-04
  -7.139500e-04  -7.433770e-04
  -7.113954e-04  -7.275693e-04
  -7.134525e-04  -7.167266e-04
  -7.132746e-04  -7.038352e-04
  -7.129537e-04  -6.910341e-04
  -7.111554e-04  -6.770523e-04
  -7.146849e-04  -6.683209e-04
  -7.134125e-04  -6.552612e-04
  -7.143726e-04  -6.444512e-04
  -7.121290e-04  -6.309587e-04
  -7.122687e-04  -6.197922e-04
  -7.108831e-04  -6.074925e-04
  -7.112871e-04  -5.969058e-04
  -7.094133e-04  -5.845928e-04
  -7.092052e-04  -5.738412e-04
  -7.047849e-04  -5.599015e-04
  -7.058280e-04  -5.504984e-04
  -7.037885e-04  -5.388470e-04
  -7.020771e-04  -5.276369e-04
  -6.990661e-04  -5.156486e-04
  -6.994225e-04  -5.063086e-04
  -6.969372e-04  -4.950640e-04
  -6.961290e-04  -4.851746e-04
  -6.941017e-04  -4.745886e-04
  -6.933144e-04  -4.649990e-04
  -6.879596e-04  -4.525336e-04
  -6.883613e-04  -4.440224e-04
  -6.839299e-04  -4.325452e-04
  -6.835882e-04  -4.238117e-04
  -6.799106e-04  -4.131535e-04
  -6.790323e-04  -4.043430e-04
  -6.753230e-04  -3.939900e-04
  -6.713651e-04  -3.836684e-04
  -6.709440e-04  -3.755018e-04
  -6.681176e-04  -3.661061e-04
  -6.652712e-04  -3.568418e-04
  -6.643510e-04  -3.487278e-04
  -6.610312e-04  -3.394737e-04
  -6.583798e-04  -3.306992e-04
  -6.516612e-04  -3.200530e-04
  -6.499457e-04  -3.120215e-04
  -6.453785e-04  -3.027516e-04
  -6.442441e-04  -2.952137e-04
  -6.403370e-04  -2.865169e-04
  -6.380616e-04  -2.786718e-04
  -6.328850e-04  -2.696921e-04
  -6.315988e-04  -2.624898e-04
  -6.270120e-04  -2.540265e-04
  -6.241852e-04  -2.464010e-04
  -6.210429e-04  -2.387584e-04
  -6.182100e-04  -2.313400e-04
  -6.146135e-04  -2.237437e-04
  -6.086262e-04  -2.154147e-04
  -6.018785e-04  -2.069837e-04
  -6.006533e-04  -2.005689e-04
  -5.942866e-04  -1.925483e-04
