 $SEQPAR
 ECHOT= 35.00
 SEQ= 'PRESS PAR 35
'
 HZPPPM= 127.750690
 NUNFIL= 2048
 DELTAT= 0.000500
 $END
 $NMID
 id='ANONYMOUS ', fmtdat='(2E15.6)'
 volume=27.0
 tramp=1.0
 $END
   5.214110e-02   3.905388e-03
   6.158032e-02   2.601017e-02
  -2.505702e-03   3.989025e-02
  -2.727257e-02   2.376399e-02
  -2.215152e-02   2.637714e-03
  -6.119909e-03  -4.071398e-03
   9.297402e-05   1.857857e-03
  -5.935020e-03   7.479195e-03
  -1.502925e-02   6.415303e-03
  -1.721585e-02  -4.623956e-03
  -9.977933e-03  -1.482371e-02
   2.476018e-03  -1.415719e-02
   8.372045e-03  -4.029072e-03
   4.375090e-03   5.197981e-03
  -5.240887e-03   4.718411e-03
  -9.455927e-03  -5.369212e-03
  -4.991915e-03  -1.302090e-02
   6.217965e-03  -1.256392e-02
   1.366595e-02  -3.581867e-03
   1.276304e-02   5.437917e-03
   5.553423e-03   9.247952e-03
  -1.107170e-03   6.974648e-03
  -2.819987e-03   3.414362e-03
  -3.576671e-05   3.291034e-03
   8.998474e-04   6.054459e-03
  -3.352393e-03   7.418593e-03
  -9.867889e-03   1.848425e-03
  -8.579850e-03  -6.986120e-03
   1.491258e-03  -8.380146e-03
   9.109836e-03  -5.268401e-04
   6.097910e-03   7.556841e-03
  -3.855915e-03   8.019366e-03
  -8.639005e-03   9.742399e-04
  -5.599019e-03  -4.250150e-03
  -6.805714e-04  -5.480775e-03
   3.095814e-03  -3.759720e-03
   3.903147e-03  -1.162716e-03
   5.545446e-04   1.508578e-03
  -3.062091e-03   1.607876e-04
  -2.186817e-03  -4.552333e-03
   4.666747e-03  -6.819699e-03
   9.942901e-03  -6.477048e-04
   6.229370e-03   7.164573e-03
  -2.449138e-03   7.294322e-03
  -6.075948e-03   4.424866e-04
  -6.541017e-04  -5.443470e-03
   6.281641e-03  -2.680038e-03
   7.446413e-03   4.681071e-03
   1.257716e-03   9.500495e-03
  -6.207793e-03   7.684623e-03
  -8.819823e-03   8.003092e-04
  -6.168811e-03  -5.713058e-03
   2.122483e-04  -7.136992e-03
   4.897000e-03  -2.997174e-03
   4.006495e-03   2.644808e-03
  -6.582535e-04   2.995370e-03
  -2.426005e-03  -1.122039e-03
   9.257192e-04  -4.026522e-03
   4.606325e-03  -7.112590e-04
   3.379260e-03   4.346273e-03
  -1.179406e-03   5.084841e-03
  -4.786726e-03   9.050553e-04
  -3.775675e-03  -4.767468e-03
   1.165136e-03  -7.276187e-03
   6.371063e-03  -4.308595e-03
   8.243927e-03   1.335574e-03
   5.183642e-03   6.582204e-03
  -3.206605e-04   7.195298e-03
  -4.123684e-03   3.477320e-03
  -3.445460e-03  -3.999993e-04
  -9.134242e-04  -1.119858e-03
  -1.033024e-03   6.418846e-04
  -3.373013e-03   6.731950e-04
  -4.071375e-03  -3.373436e-03
  -9.717108e-04  -6.651032e-03
   4.613553e-03  -5.312775e-03
   6.970249e-03   2.051263e-04
   3.493507e-03   4.956544e-03
  -2.844839e-03   5.579374e-03
  -6.310375e-03   7.762200e-04
  -4.666496e-03  -5.343504e-03
   8.918972e-04  -7.526918e-03
   5.826232e-03  -4.410323e-03
   6.060206e-03   6.744248e-04
   3.287524e-03   3.522538e-03
   9.530102e-04   2.653179e-03
   8.371478e-04   1.395440e-03
   1.786448e-03   2.651888e-03
   2.785981e-04   4.856546e-03
  -3.077467e-03   5.162862e-03
  -6.965343e-03   2.286931e-03
  -7.165100e-03  -3.003977e-03
  -3.233151e-03  -6.838396e-03
   1.809790e-03  -6.504123e-03
   4.319616e-03  -2.238004e-03
   3.040179e-03   1.498672e-03
  -8.241200e-04   1.888407e-03
  -2.016757e-03  -5.044320e-04
  -9.598760e-05  -2.451139e-03
   1.552708e-03  -1.146135e-03
   1.417781e-03   1.133715e-03
  -1.300820e-03   1.559172e-03
  -2.930984e-03  -8.579228e-04
  -9.672365e-04  -3.789346e-03
   2.791518e-03  -4.158614e-03
   5.429308e-03   9.463663e-05
   4.344092e-03   4.714404e-03
  -7.997095e-05   7.051822e-03
  -4.619346e-03   4.675564e-03
  -5.891933e-03  -4.802733e-05
  -3.222409e-03  -2.869370e-03
   4.878092e-05  -2.854107e-03
   1.221357e-03  -2.842256e-04
  -2.412040e-04   1.252935e-03
  -1.905860e-03   5.118118e-04
  -1.820809e-03  -1.512710e-03
  -3.398394e-04  -2.115561e-03
   9.502793e-04  -5.600098e-04
   1.640217e-04   1.076600e-03
  -1.722922e-03   5.031204e-05
  -2.003724e-03  -2.272425e-03
   3.386624e-04  -3.890922e-03
   3.709268e-03  -2.711684e-03
   4.243286e-03   8.298943e-04
   2.414788e-03   4.128082e-03
  -9.250673e-04   4.009000e-03
  -2.818797e-03   1.252067e-03
  -1.454482e-03  -9.438874e-04
   7.849251e-04  -9.670220e-04
   1.453992e-03   1.212251e-03
  -3.419934e-04   2.899688e-03
  -2.649266e-03   1.947225e-03
  -3.081732e-03  -8.601442e-04
  -1.247688e-03  -2.890300e-03
   1.502144e-03  -1.925325e-03
   1.725131e-03   2.283556e-04
  -1.970281e-04   2.107496e-03
  -2.180197e-03   9.270305e-04
  -2.173591e-03  -2.514885e-03
   6.505313e-04  -3.898615e-03
   3.707806e-03  -1.953644e-03
   4.065927e-03   1.407052e-03
   1.902866e-03   4.197547e-03
  -1.657766e-03   3.268081e-03
  -2.984787e-03   9.204431e-04
  -1.900995e-03  -1.568605e-03
   4.305502e-04  -1.756768e-03
   1.481052e-03  -2.378313e-04
   4.799378e-04   9.566509e-04
  -4.643785e-04   4.492631e-04
   1.891049e-04  -8.698077e-04
   1.786937e-03  -9.210727e-04
   2.649150e-03   9.341572e-04
   1.630389e-03   3.214077e-03
  -1.048930e-03   3.862963e-03
  -3.115569e-03   1.684822e-03
  -2.634721e-03  -5.718255e-04
  -7.957436e-04  -2.316134e-03
   4.584878e-04  -1.622391e-03
   1.248608e-03  -2.847039e-04
   5.310199e-04   5.331063e-04
  -1.502490e-04   1.975872e-04
   6.061022e-04  -5.887262e-04
   1.434791e-03  -3.240633e-04
   1.123187e-03   1.140935e-03
   2.810439e-05   2.127949e-03
  -1.619698e-03   1.296333e-03
  -1.231723e-03  -1.035080e-03
   5.705854e-04  -2.140965e-03
   3.071669e-03  -8.015284e-04
   3.139660e-03   2.150311e-03
   6.191383e-04   4.283183e-03
  -2.212190e-03   3.800959e-03
  -3.348504e-03   1.341520e-03
  -2.659380e-03  -1.251412e-03
  -5.394880e-04  -2.091048e-03
   3.588112e-04  -1.111038e-03
   1.039525e-04   6.870983e-05
  -5.792401e-04  -4.701831e-04
  -3.352341e-04  -1.668852e-03
   1.244872e-03  -2.218334e-03
   2.771836e-03  -7.024604e-04
   2.811267e-03   1.843183e-03
   5.375403e-04   3.297586e-03
  -2.655910e-03   2.384267e-03
  -3.894159e-03  -1.051930e-04
  -1.884311e-03  -2.689255e-03
   5.055557e-04  -2.584061e-03
   2.104849e-03  -1.193725e-03
   1.128036e-03   1.234975e-03
  -3.168351e-04   1.542850e-03
  -1.298383e-03   5.748718e-04
  -8.323910e-04  -8.694894e-04
   2.978428e-04  -3.893431e-04
   5.552127e-04   4.431037e-04
  -6.487037e-04   9.668985e-04
  -1.857614e-03   3.499533e-04
  -1.389651e-03  -1.134120e-03
  -3.215781e-04  -1.698267e-03
   7.992974e-04  -1.201293e-03
   1.119623e-03  -1.831807e-04
   1.443263e-04   7.004719e-04
  -7.736495e-04   5.466102e-04
  -1.342779e-03  -3.473118e-04
  -8.068991e-04  -1.099485e-03
  -1.261866e-04  -1.196003e-03
   4.289101e-04  -6.650418e-04
  -4.730549e-05  -5.405963e-04
  -2.546359e-04  -7.490512e-04
   6.748479e-04  -9.974229e-04
   1.146763e-03  -3.423886e-04
   1.010646e-03   8.689893e-04
  -7.669211e-05   1.279410e-03
  -1.554211e-03   9.976288e-04
  -2.335236e-03  -4.240205e-04
  -1.152964e-03  -1.716529e-03
   1.038881e-04  -1.473102e-03
   5.913213e-04  -3.116594e-04
  -1.669713e-05   9.165847e-05
  -1.107808e-03  -2.579423e-06
  -1.508121e-03  -1.648846e-03
  -4.265691e-04  -2.619907e-03
   9.852477e-04  -2.423459e-03
   1.742734e-03  -4.182289e-04
   1.091838e-03   4.103483e-04
  -2.791584e-05   3.361930e-04
  -4.724856e-04  -4.091582e-04
  -6.036238e-05  -1.002380e-03
   6.617907e-04  -7.277989e-04
   7.288464e-04   3.283624e-04
  -3.141700e-04   9.604060e-04
  -1.645514e-03   3.527799e-04
  -1.747866e-03  -9.934856e-04
  -6.173020e-04  -2.247428e-03
   4.981186e-04  -1.942830e-03
   1.546200e-03  -8.825880e-04
   1.035981e-03   3.967446e-04
   3.288627e-06   5.481362e-04
  -5.749664e-04  -3.703737e-05
  -4.378769e-04  -7.976156e-04
   4.892631e-04  -5.852667e-04
   3.521632e-04   1.089686e-04
  -2.839381e-05   2.958548e-04
  -6.995277e-04  -4.670906e-04
  -3.687179e-04  -1.231871e-03
   4.638306e-04  -1.485842e-03
   1.192631e-03  -7.778378e-04
   7.599395e-04   3.915122e-04
  -8.591566e-05   9.467517e-04
  -3.925011e-04   3.052429e-04
  -7.849382e-04  -3.917175e-04
  -4.204872e-04  -6.497430e-04
   2.497528e-07  -8.954833e-04
   2.649559e-04  -5.101189e-06
   1.880250e-04  -1.575219e-04
   1.789571e-04  -5.757995e-04
   8.834776e-04  -4.628664e-04
   1.408883e-03   9.130527e-05
   7.173937e-04   1.035979e-03
  -1.683659e-04   1.545948e-03
  -1.056212e-03   7.907707e-04
  -1.477990e-03  -4.418647e-04
  -8.679754e-04  -1.476937e-03
   5.944773e-04  -1.195472e-03
   1.141638e-03  -1.355061e-04
   6.385982e-04   7.495083e-04
   2.406082e-04   5.855989e-04
  -3.594781e-04  -4.253868e-06
  -3.429157e-05  -3.708948e-04
   4.089659e-04  -2.064530e-04
   4.167309e-04   5.447849e-04
  -3.611628e-04   8.870356e-04
  -1.086163e-03   3.925385e-04
  -1.084989e-03  -3.389971e-04
  -6.568872e-05  -9.224324e-04
   8.644435e-04  -6.767128e-04
   8.909430e-04   5.545268e-04
   5.017132e-05   1.273035e-03
  -9.575240e-04   7.603652e-04
  -1.451712e-03   2.788946e-05
  -6.435518e-04  -7.299568e-04
   2.011760e-04  -3.493183e-04
   6.015957e-04   2.181711e-04
  -1.380889e-04   3.592339e-04
  -4.339238e-04   9.209042e-05
  -4.147079e-04  -3.444020e-04
   3.715899e-04  -8.492898e-04
   9.637918e-04  -3.900006e-06
   4.516686e-04   9.372830e-04
   7.541471e-05   1.033862e-03
  -1.158373e-03   6.041801e-04
  -8.270783e-04   3.362995e-04
  -1.485010e-04  -5.753166e-04
   4.778453e-05  -1.828519e-04
   3.047628e-04   6.171072e-04
  -1.341470e-04   7.533525e-04
  -5.200913e-04   5.626738e-04
  -8.724262e-04   9.544911e-05
  -2.770163e-04  -8.357879e-05
  -4.145843e-05  -5.367971e-05
   2.545036e-04   6.228076e-05
  -2.330808e-04   3.957194e-04
  -5.231192e-04  -2.142099e-04
  -3.373535e-04  -3.674048e-04
   5.080068e-04  -2.757259e-04
   5.449379e-04   2.477213e-04
   1.267973e-05   6.773439e-04
  -6.585714e-04   4.944308e-04
  -7.359810e-04  -1.462054e-04
  -3.277187e-04  -5.870995e-04
   2.321018e-05  -1.871092e-04
   8.762028e-05   1.452163e-04
  -2.020444e-04   6.618676e-04
  -4.987239e-04   4.896689e-04
  -8.769496e-04  -3.952712e-05
  -3.117390e-04  -1.386395e-04
