 $SEQPAR
 ECHOT= 35.00
 SEQ= 'PRESS PAR 35
'
 HZPPPM= 127.750896
 NUNFIL= 2048
 DELTAT= 0.000500
 $END
 $NMID
 id='ANONYMOUS ', fmtdat='(2E15.6)'
 volume=27.0
 tramp=1.0
 $END
   5.782515e-02  -1.416723e-02
   8.937124e-02   4.586367e-03
   3.001977e-02   5.467926e-02
  -2.828400e-02   5.718510e-02
  -4.864481e-02   1.268295e-02
  -1.745396e-02  -2.032722e-02
   1.180441e-02  -4.192252e-03
  -1.450804e-03   2.287249e-02
  -2.878691e-02   1.785132e-02
  -3.004023e-02  -1.048489e-02
  -8.026167e-03  -2.459625e-02
   8.446748e-03  -1.309727e-02
   5.070894e-03   3.983614e-03
  -5.067124e-03   5.316227e-03
  -9.572729e-03  -1.521681e-03
  -1.036664e-02  -8.461821e-03
  -8.906270e-03  -1.348693e-02
   4.149943e-04  -1.804939e-02
   1.437338e-02  -1.435204e-02
   2.146624e-02  -1.880447e-03
   1.410732e-02   9.692843e-03
   2.061065e-04   9.409118e-03
  -2.752569e-03   7.572339e-04
   7.586045e-03  -1.035238e-03
   1.224080e-02   9.950450e-03
   7.051979e-04   1.619150e-02
  -1.175193e-02   7.003879e-03
  -8.512843e-03  -6.256559e-03
   6.225637e-03  -5.587642e-03
   1.171942e-02   6.380693e-03
   1.227370e-03   1.420778e-02
  -1.009197e-02   9.549268e-03
  -1.255912e-02   6.141442e-04
  -9.402406e-03  -2.881500e-03
  -5.540669e-03  -5.659815e-03
  -1.335404e-03  -7.262240e-03
   1.632963e-03  -5.074857e-03
   4.633391e-04   7.715622e-05
  -4.627833e-03  -1.303638e-03
  -3.466226e-03  -8.503518e-03
   6.585577e-03  -1.148616e-02
   1.341482e-02  -2.964272e-03
   8.636724e-03   7.868228e-03
  -1.973241e-03   9.004954e-03
  -6.056649e-03  -4.678253e-04
   4.435652e-04  -6.835196e-03
   8.363156e-03  -3.672043e-03
   8.741561e-03   5.681121e-03
   1.695813e-03   1.073223e-02
  -5.918005e-03   8.631103e-03
  -9.682693e-03   8.480917e-04
  -7.704392e-03  -6.277622e-03
  -8.340343e-04  -8.098970e-03
   5.390460e-03  -4.476860e-03
   5.097409e-03   1.291405e-03
   2.552430e-04   1.844043e-03
  -2.892072e-03  -1.801947e-03
  -2.263601e-04  -4.373096e-03
   5.035638e-03  -1.429276e-03
   4.600194e-03   3.676167e-03
  -1.061818e-03   4.936145e-03
  -6.085579e-03   4.861396e-04
  -5.128361e-03  -6.243575e-03
   5.683637e-04  -8.389009e-03
   8.159268e-03  -5.732586e-03
   1.068896e-02   1.352655e-03
   6.953911e-03   7.483748e-03
  -5.158570e-04   8.854152e-03
  -5.099882e-03   4.314172e-03
  -5.020547e-03   5.871901e-04
  -1.972138e-03  -6.599028e-05
  -2.048532e-03   1.510404e-03
  -5.061459e-03   8.394760e-04
  -5.515990e-03  -3.636924e-03
  -1.329159e-03  -7.320150e-03
   4.410554e-03  -6.442173e-03
   7.155527e-03  -1.254523e-04
   3.629616e-03   6.051206e-03
  -2.968691e-03   6.193531e-03
  -7.624579e-03   8.795379e-04
  -5.829001e-03  -6.254650e-03
   5.096147e-04  -9.361686e-03
   6.498432e-03  -5.447681e-03
   7.621584e-03   1.028682e-04
   5.445908e-03   3.106869e-03
   2.513133e-03   3.112840e-03
   2.073199e-03   2.777221e-03
   2.497216e-03   4.253349e-03
   8.053628e-04   6.339962e-03
  -4.195634e-03   6.911344e-03
  -8.268094e-03   3.163123e-03
  -8.509294e-03  -2.779156e-03
  -4.915881e-03  -6.946331e-03
   1.221624e-03  -7.118033e-03
   5.095065e-03  -2.903798e-03
   3.455431e-03   1.456190e-03
  -2.425111e-04   2.141174e-03
  -1.908645e-03  -3.504834e-04
  -5.981751e-04  -2.360779e-03
   1.780640e-03  -1.581538e-03
   1.667737e-03   5.891958e-04
  -8.876380e-04   1.672819e-03
  -2.463982e-03  -9.811020e-04
  -9.252901e-04  -4.342080e-03
   3.656089e-03  -4.190582e-03
   7.020674e-03  -2.978087e-04
   6.173426e-03   5.316873e-03
   6.424464e-04   8.589791e-03
  -4.459938e-03   5.991160e-03
  -6.640849e-03   8.453392e-04
  -4.243626e-03  -2.572987e-03
  -8.751670e-04  -2.186059e-03
   7.466378e-04  -3.424637e-04
  -5.783286e-04   1.507970e-03
  -2.358367e-03   4.801332e-04
  -2.315729e-03  -1.310252e-03
  -7.034243e-04  -2.044149e-03
   1.841324e-04  -8.470501e-04
  -4.468522e-04   1.858522e-04
  -1.779892e-03  -2.680756e-04
  -2.179621e-03  -2.675111e-03
   5.197776e-04  -4.513494e-03
   4.164373e-03  -3.232667e-03
   5.899974e-03   3.793879e-04
   3.536838e-03   4.235689e-03
  -4.824520e-04   4.799599e-03
  -2.696531e-03   2.254528e-03
  -1.671774e-03  -7.529185e-04
   6.481912e-04  -3.001351e-04
   1.099135e-03   1.711143e-03
  -7.348934e-04   3.285598e-03
  -3.080671e-03   2.181522e-03
  -4.020400e-03  -4.160488e-04
  -2.181960e-03  -2.241403e-03
   5.664296e-04  -2.147619e-03
   1.552015e-03   9.926106e-06
  -3.240041e-04   1.843421e-03
  -2.994164e-03   6.397645e-04
  -2.893705e-03  -2.602048e-03
  -3.341887e-04  -4.772626e-03
   3.426879e-03  -3.135186e-03
   4.684175e-03   2.140380e-04
   2.501880e-03   3.449399e-03
  -1.112851e-03   3.874827e-03
  -2.748223e-03   1.117079e-03
  -2.510478e-03  -1.435587e-03
  -4.342412e-04  -1.867632e-03
   9.032013e-04  -8.211684e-04
   3.824947e-04   5.034126e-04
  -7.234684e-04  -2.626418e-04
  -4.568602e-05  -1.061223e-03
   1.357962e-03  -1.079393e-03
   2.761506e-03   5.439519e-04
   1.829964e-03   2.804733e-03
  -9.522027e-04   3.270197e-03
  -3.821098e-03   1.930231e-03
  -3.993833e-03  -8.742320e-04
  -2.126081e-03  -2.680081e-03
   1.259706e-04  -2.129340e-03
   7.074246e-04  -8.872533e-04
   1.549094e-04  -2.707603e-04
  -1.759731e-04  -2.810962e-04
   1.088259e-04  -1.011260e-03
   1.154099e-03  -5.991658e-04
   1.370227e-03   4.805573e-04
   5.872638e-04   1.589905e-03
  -1.245810e-03   8.293897e-04
  -1.219730e-03  -1.018594e-03
   6.304611e-04  -2.234134e-03
   2.960324e-03  -1.366494e-03
   3.348323e-03   1.752021e-03
   1.373900e-03   4.028342e-03
  -1.529211e-03   3.867336e-03
  -3.605305e-03   1.767125e-03
  -3.130973e-03  -9.817442e-04
  -1.622023e-03  -1.743304e-03
  -2.961925e-04  -1.413628e-03
  -1.745014e-04  -8.182933e-04
  -4.907409e-04  -1.396474e-03
  -1.483743e-05  -2.534918e-03
   1.605133e-03  -2.617330e-03
   3.329615e-03  -1.206088e-03
   3.113060e-03   1.493649e-03
   1.370982e-03   3.354203e-03
  -2.191222e-03   3.034979e-03
  -3.496293e-03   3.091242e-04
  -2.245936e-03  -2.460158e-03
   6.267907e-04  -3.251173e-03
   2.403164e-03  -1.398734e-03
   2.691729e-03   6.313639e-04
   5.027492e-04   1.346038e-03
  -4.760352e-04   1.091066e-03
  -1.232363e-04   2.154870e-04
   3.123176e-04  -3.817653e-04
   8.912288e-04   8.737508e-04
  -3.012997e-04   1.723582e-03
  -1.281083e-03   9.532646e-04
  -1.624914e-03  -7.585278e-04
  -4.892884e-04  -1.158747e-03
   7.372079e-04  -1.103874e-03
   1.142305e-03   4.986230e-04
   3.217521e-04   1.107322e-03
  -5.914437e-04   9.990709e-04
  -1.043720e-03   3.635313e-04
  -9.175063e-04  -6.368085e-04
  -1.846219e-04  -9.341216e-04
   4.267372e-04  -8.309818e-04
   5.361234e-04  -6.404349e-04
   6.032299e-04  -4.905228e-04
   1.202494e-03  -3.255482e-04
   2.055545e-03   1.652875e-04
   1.591856e-03   1.350077e-03
   7.376081e-04   2.349240e-03
  -9.375290e-04   2.221370e-03
  -1.690382e-03   3.569401e-04
  -1.175637e-03  -4.380902e-04
  -2.593808e-04  -8.741661e-04
   3.477088e-04   4.532108e-04
  -3.183779e-04   9.465973e-04
  -1.306785e-03   3.562931e-04
  -1.599370e-03  -9.148035e-04
  -8.517375e-04  -1.791415e-03
   9.182352e-04  -1.640474e-03
   1.727526e-03  -4.839177e-04
   1.494099e-03   7.561815e-04
   2.260793e-04   1.064317e-03
  -2.197031e-04   5.428954e-04
   2.472446e-04   1.514190e-04
   9.232568e-04   3.041677e-04
   1.016371e-03   1.044837e-03
  -2.695326e-05   1.641064e-03
  -1.407286e-03   1.580811e-03
  -1.748150e-03  -4.224747e-05
  -1.120254e-03  -1.350299e-03
   3.184981e-04  -1.329120e-03
   1.393066e-03  -6.010760e-04
   1.347327e-03   7.613816e-04
   2.375235e-04   1.011332e-03
  -4.512394e-04   4.542455e-04
  -3.278512e-04   3.505428e-04
  -3.031086e-04   2.831713e-04
  -3.977601e-05   7.178881e-04
  -1.339173e-04   7.780378e-04
  -1.001688e-03  -2.236820e-04
  -5.076155e-04  -7.743317e-04
   2.313606e-04  -8.837971e-04
   9.810900e-04  -2.635245e-04
   1.212625e-03   4.709943e-04
   6.042589e-04   1.095906e-03
   1.218572e-05   1.283558e-03
  -5.630092e-04   5.234218e-04
  -2.821549e-04  -3.350500e-04
   1.196908e-04  -1.945697e-04
   1.874113e-04  -3.614922e-04
   1.783758e-04  -1.906102e-04
   4.476042e-04  -3.295974e-04
   9.211382e-04   1.058598e-05
   1.236406e-03   1.595606e-04
   8.690936e-04   1.220925e-03
  -4.704456e-05   2.148749e-03
  -1.211378e-03   1.356314e-03
  -1.776400e-03   5.325641e-04
  -1.014218e-03  -8.551794e-04
  -5.643269e-05  -9.274962e-04
   7.310087e-04  -2.594301e-04
   1.020276e-03   2.396102e-04
   3.858441e-04   3.819074e-04
  -1.374555e-04  -1.247390e-04
   3.239923e-04  -1.777936e-04
   1.072707e-03   2.222170e-04
   7.197500e-04   8.755017e-04
   1.153260e-04   1.253369e-03
  -3.813975e-04   6.569509e-04
  -4.450710e-04   1.274267e-04
   1.525608e-04  -4.644962e-04
   1.181610e-03  -1.510075e-04
   1.108134e-03   6.858007e-04
   4.993988e-04   1.179211e-03
  -4.021190e-04   1.464421e-03
  -8.960237e-04   5.458112e-04
  -5.302007e-04  -4.883008e-04
   1.648134e-04  -5.042283e-04
   5.997266e-04   1.306376e-04
   4.525299e-04   1.299208e-04
  -1.193091e-04   1.956541e-04
   9.291110e-05  -2.248921e-04
   5.223429e-04  -3.321460e-04
   7.519013e-04  -3.755027e-05
   1.237259e-03   4.961163e-04
   4.455193e-04   1.048809e-03
  -2.488470e-04   8.284733e-04
  -6.782095e-06   2.229235e-04
   9.301581e-06  -1.475602e-04
   7.216905e-04  -8.356407e-05
   4.114581e-04   6.644326e-04
   3.730347e-04   7.285130e-04
  -5.142601e-04   8.271861e-04
  -2.458452e-04   3.597710e-04
  -1.658031e-04  -3.109477e-04
   5.308021e-04  -1.248107e-05
   3.019545e-04   1.810960e-04
   4.169882e-04   1.587349e-04
   2.325250e-04   3.808089e-04
  -2.659168e-05  -4.778124e-05
   1.683205e-04  -4.375369e-04
   5.137603e-04   1.839166e-04
   6.954244e-04   6.091251e-04
  -1.569106e-04   7.857424e-04
  -9.784543e-05   3.324359e-04
  -5.416578e-04  -7.369307e-06
   3.392311e-04   1.228369e-05
   2.906019e-04   4.616894e-04
   4.155882e-04   9.755836e-04
   2.435925e-04   4.956875e-04
  -4.845403e-05   2.219886e-04
  -1.316219e-04  -1.455129e-04
