 $SEQPAR
 ECHOT= 0.01
 SEQ= 'svs_st'
 HZPPPM= 297.219948
 NUNFIL= 2048
 DELTAT= 0.000167
 $END
 $NMID
 id='ANONYMOUS ', fmtdat='(2E15.6)'
 volume=8.0
 tramp=1.0
 $END
   3.702342e-05   1.366979e-05
   4.581399e-05   3.783722e-05
   7.624411e-06   4.623917e-05
  -1.433371e-05   3.540752e-05
  -2.354649e-05   1.598693e-05
  -1.335614e-05   3.072315e-06
  -4.045649e-06   4.307442e-07
   2.024971e-06   4.532260e-06
  -2.193769e-06   8.542955e-06
  -6.876118e-06   9.550462e-06
  -1.256242e-05   7.538230e-06
  -1.299730e-05   2.629154e-06
  -1.265855e-05  -3.245373e-06
  -8.097543e-06  -8.483015e-06
  -2.176155e-06  -9.674384e-06
   4.384613e-06  -5.789231e-06
   4.990746e-06   1.891081e-06
   8.827528e-07   7.019693e-06
  -6.059657e-06   5.498607e-06
  -9.432110e-06  -9.944072e-07
  -7.864643e-06  -8.159460e-06
  -8.313920e-07  -1.057710e-05
   4.180436e-06  -7.651817e-06
   7.087593e-06  -2.157837e-06
   6.332206e-06   2.552542e-06
   4.150709e-06   5.050164e-06
   6.265897e-07   5.079778e-06
  -1.964220e-06   3.714318e-06
  -3.659096e-06   2.015314e-06
  -2.011229e-06   3.822585e-07
   7.054366e-08   6.170749e-07
   1.396733e-06   2.779347e-06
  -2.013473e-06   5.220310e-06
  -6.265188e-06   4.286128e-06
  -9.901807e-06  -7.157198e-07
  -7.732013e-06  -6.712394e-06
  -9.471889e-07  -8.636226e-06
   5.792587e-06  -5.788467e-06
   7.294477e-06   2.707255e-07
   3.859134e-06   4.763205e-06
  -1.785039e-06   5.450499e-06
  -5.323807e-06   2.586168e-06
  -5.695083e-06  -5.305245e-07
  -3.556197e-06  -2.562477e-06
  -1.760363e-06  -3.380885e-06
  -1.173296e-07  -3.887755e-06
   1.114453e-06  -3.138247e-06
   1.614253e-06  -1.093019e-06
   1.202785e-08   1.127522e-06
  -2.530003e-06   6.758685e-07
  -3.764049e-06  -2.187002e-06
  -1.581464e-06  -6.562643e-06
   2.614525e-06  -7.379976e-06
   6.750918e-06  -3.761841e-06
   5.900177e-06   1.961123e-06
   2.102424e-06   5.316846e-06
  -2.595813e-06   3.645951e-06
  -3.212886e-06  -1.406351e-06
  -3.501713e-07  -5.434152e-06
   4.366494e-06  -5.163903e-06
   7.030981e-06  -1.460644e-06
   7.088963e-06   3.687034e-06
   3.906688e-06   7.438879e-06
  -5.582292e-07   8.444469e-06
  -5.170721e-06   6.009493e-06
  -7.188275e-06   1.768138e-06
  -7.315871e-06  -3.101452e-06
  -3.525718e-06  -6.454236e-06
   1.509093e-06  -6.382726e-06
   4.897870e-06  -3.197481e-06
   4.188031e-06   2.184100e-07
   1.821833e-06   1.557462e-06
  -5.881882e-07   9.806748e-07
  -2.903223e-07  -8.605384e-07
   2.076720e-06  -7.761397e-07
   3.513122e-06   1.235896e-06
   2.701219e-06   3.921857e-06
  -4.514871e-07   4.293754e-06
  -3.501421e-06   2.992530e-06
  -4.816105e-06   4.990812e-08
  -3.818606e-06  -2.172621e-06
  -1.578621e-06  -3.560528e-06
   8.265687e-07  -3.759645e-06
   3.311337e-06  -3.152940e-06
   5.393690e-06  -1.537258e-06
   5.488047e-06   1.509830e-06
   3.917820e-06   5.376595e-06
   2.484511e-07   6.613061e-06
  -3.357604e-06   5.366246e-06
  -4.398761e-06   2.236525e-06
  -3.306065e-06  -6.165075e-07
  -1.384974e-06  -8.132485e-07
  -6.877163e-07   6.493977e-07
  -1.703328e-06   1.653609e-06
  -3.224137e-06   7.699495e-07
  -3.456227e-06  -2.113899e-06
  -1.734621e-06  -4.094341e-06
   1.157409e-06  -4.176130e-06
   3.037620e-06  -2.327603e-06
   3.086285e-06   3.383949e-07
   1.605373e-06   2.441594e-06
  -5.450027e-07   3.119584e-06
  -2.836050e-06   1.825849e-06
  -3.481586e-06  -4.089465e-07
  -2.849475e-06  -2.789066e-06
  -1.191212e-06  -4.149440e-06
   1.502231e-06  -3.568610e-06
   3.057694e-06  -2.022534e-06
   3.097984e-06  -7.240392e-07
   2.136269e-06  -3.472013e-07
   1.615089e-06  -8.274524e-07
   2.834060e-06  -7.781029e-07
   4.171489e-06   3.088326e-07
   4.612622e-06   2.777883e-06
   2.960752e-06   5.294639e-06
  -8.718575e-08   6.738274e-06
  -3.803468e-06   6.019381e-06
  -6.548191e-06   3.326677e-06
  -7.126551e-06  -8.094501e-07
  -5.251667e-06  -4.140186e-06
  -1.578671e-06  -5.697490e-06
   2.122646e-06  -4.729770e-06
   3.835795e-06  -1.493075e-06
   3.317997e-06   1.460101e-06
   1.182805e-07   3.356976e-06
  -2.643823e-06   2.227248e-06
  -3.854714e-06  -2.603834e-07
  -2.770476e-06  -3.128721e-06
  -1.613991e-07  -3.932689e-06
   2.189206e-06  -2.739146e-06
   2.260137e-06  -7.120896e-07
   1.008673e-06   6.770449e-07
  -5.980884e-07   2.594349e-07
  -7.127675e-07  -1.145274e-06
   3.298595e-07  -2.563863e-06
   2.272285e-06  -3.366628e-06
   3.759660e-06  -1.572523e-06
   4.516306e-06   8.279643e-07
   3.925435e-06   2.972972e-06
   1.998795e-06   4.394744e-06
  -4.617526e-07   4.323989e-06
  -2.225739e-06   3.138389e-06
  -2.770741e-06   1.317026e-06
  -1.903662e-06  -3.827527e-07
  -5.128354e-07  -8.585534e-07
   4.326462e-07   1.621257e-07
  -9.270326e-08   1.302077e-06
  -1.421693e-06   1.245257e-06
  -2.399031e-06   4.259050e-07
  -1.988036e-06  -1.435807e-06
  -9.667217e-07  -2.231815e-06
   6.637612e-07  -1.899030e-06
   1.416460e-06  -9.001713e-07
   8.098703e-07   4.415281e-07
  -3.078841e-07   6.173803e-07
  -1.529557e-06  -3.404666e-07
  -1.378188e-06  -1.765120e-06
   6.545973e-08  -2.977671e-06
   1.904688e-06  -2.708062e-06
   3.267160e-06  -1.658071e-06
   3.942691e-06   3.850212e-07
   2.628817e-06   2.455240e-06
   9.802918e-07   3.301182e-06
  -1.325663e-06   2.651184e-06
  -1.864288e-06   1.455748e-06
  -1.190435e-06  -3.320526e-07
  -1.143478e-07  -6.304609e-07
   9.187459e-07  -2.092257e-07
   7.525680e-07   9.533097e-07
  -2.649036e-07   1.262855e-06
  -1.610836e-06   9.356330e-07
  -1.942376e-06  -4.852498e-07
  -9.066639e-07  -1.305978e-06
   5.102522e-07  -1.867464e-06
   1.524218e-06  -8.824891e-07
   1.619771e-06   8.476571e-07
   2.204852e-07   2.138965e-06
  -1.009315e-06   2.067059e-06
  -2.405086e-06   8.471116e-07
  -2.197579e-06  -1.244011e-06
  -9.093895e-07  -2.885510e-06
   1.210538e-06  -2.767072e-06
   2.691589e-06  -1.831694e-06
   2.928897e-06   5.604330e-07
   2.105320e-06   2.380403e-06
  -1.826574e-07   2.940821e-06
  -1.722660e-06   2.288073e-06
  -2.799186e-06   4.932237e-07
  -1.877311e-06  -1.306394e-06
  -7.550798e-07  -1.821671e-06
   5.022467e-07  -1.417127e-06
   5.494972e-07  -5.640540e-07
   9.944361e-08  -2.903771e-07
  -1.947446e-07  -1.642345e-07
  -5.853655e-07  -9.338102e-07
   4.483441e-07  -2.207191e-06
   1.571448e-06  -1.948347e-06
   3.051393e-06  -8.072633e-07
   3.160334e-06   7.676956e-07
   2.085453e-06   2.628041e-06
   2.662201e-07   3.510010e-06
  -1.920822e-06   3.133213e-06
  -3.161440e-06   1.425325e-06
  -2.385827e-06  -5.018598e-07
  -1.765555e-06  -1.509633e-06
  -5.214147e-07  -1.673895e-06
   3.920406e-08  -1.064313e-06
   4.099938e-07  -6.377664e-07
   2.975315e-07  -6.048346e-07
   3.488123e-07  -7.196766e-07
   5.292084e-07  -5.773818e-07
   1.415513e-06  -3.594257e-07
   1.406973e-06   3.787431e-07
   5.683677e-07   1.129595e-06
  -1.370556e-07   1.461638e-06
  -1.207345e-06   7.876662e-07
  -1.673585e-06  -1.467690e-07
  -1.620318e-06  -1.076847e-06
  -3.085619e-07  -2.006352e-06
   8.462604e-07  -2.043156e-06
   1.969522e-06  -1.050133e-06
   2.581345e-06   5.516022e-07
   1.529970e-06   1.949408e-06
   5.591622e-07   2.059780e-06
  -9.905239e-07   1.841597e-06
  -1.279938e-06   7.888970e-07
  -1.115602e-06   1.824833e-07
  -4.045823e-07   5.091742e-08
  -2.561544e-07   4.706560e-07
  -6.386422e-07   8.413087e-07
  -1.616141e-06   4.607624e-07
  -2.000342e-06  -8.509763e-07
  -1.398274e-06  -2.037357e-06
  -1.926920e-07  -2.725659e-06
   1.219256e-06  -2.130744e-06
   2.436684e-06  -1.155504e-06
   2.600849e-06   6.693699e-07
   1.364127e-06   1.914983e-06
  -2.090188e-07   2.343255e-06
  -1.536523e-06   1.190476e-06
  -2.078994e-06   1.653537e-07
  -1.604614e-06  -1.273776e-06
  -1.412485e-07  -1.943343e-06
   1.032579e-06  -1.443255e-06
   1.644358e-06  -4.672508e-07
   1.164124e-06   4.461049e-07
   5.204956e-07   8.279273e-07
   1.192497e-07   5.339490e-07
   3.600619e-07   1.048594e-07
   5.343541e-07   3.443655e-07
   6.849151e-07   6.290837e-07
   4.673520e-07   1.201508e-06
  -2.586282e-07   2.140284e-06
  -1.543293e-06   1.554545e-06
  -2.164102e-06   9.490737e-07
  -2.198045e-06  -5.640316e-07
  -1.717598e-06  -1.536680e-06
  -6.779845e-07  -2.056091e-06
   7.781813e-07  -1.759855e-06
   1.584348e-06  -6.722819e-07
   1.105787e-06   3.262280e-07
   1.657376e-07   1.028324e-06
  -4.687755e-07   5.191602e-07
  -8.244926e-07  -2.877973e-07
  -4.390068e-07  -1.106563e-06
   3.331876e-07  -8.514619e-07
   9.428176e-07  -4.107919e-07
   9.720082e-07  -6.013069e-07
   5.141559e-07   1.787123e-07
   3.883111e-07   1.263530e-07
  -6.848076e-08  -8.220459e-08
   1.095391e-07  -1.345781e-07
   6.609113e-07   1.422636e-07
   1.055950e-06   2.349215e-07
   7.032708e-07   1.006971e-06
   1.936300e-07   1.482273e-06
  -3.709394e-07   1.212621e-06
  -1.022894e-06   6.260487e-07
  -1.348181e-06  -2.299609e-07
  -6.646046e-07  -6.895358e-07
   1.998402e-07  -4.376501e-07
   8.576431e-07   3.890730e-08
   3.506145e-07   5.862475e-07
  -2.532622e-07   8.203344e-07
  -8.428166e-07   1.022924e-06
  -1.429815e-06   2.154696e-07
  -1.284026e-06  -5.881258e-07
  -5.995065e-07  -9.947092e-07
   2.309915e-09  -7.258710e-07
   2.546894e-07  -3.947196e-07
   5.256110e-07   3.888658e-07
  -1.638459e-07   2.593476e-07
  -5.200922e-07   1.163586e-07
  -6.579198e-07  -6.213397e-07
  -6.208868e-08  -1.018686e-06
   9.664633e-07  -1.062652e-06
   1.378434e-06  -4.595872e-07
   1.357060e-06   3.928064e-07
   6.765054e-07   1.207836e-06
  -3.372248e-07   1.258987e-06
  -1.268217e-06   7.865023e-07
  -1.157488e-06  -8.383795e-08
  -5.516165e-07  -6.951540e-07
  -2.217817e-07  -8.684048e-07
   2.258792e-07  -6.029838e-07
   6.660915e-07   2.909318e-09
   2.298479e-07   2.391455e-07
   3.957337e-07   1.754658e-07
   2.369735e-08   5.149771e-07
   3.572835e-07   4.707526e-07
   4.756206e-07   3.770924e-07
   3.184518e-07   8.043884e-07
  -1.555571e-07   1.125008e-06
  -1.037525e-06   1.360517e-06
  -1.849069e-06   6.980350e-07
  -1.893709e-06  -1.727414e-07
  -1.744454e-06  -1.111613e-06
