jMRUI Data Textfile

Filename: /Users/Georg/Documents/MATLAB/osprey/exampledata/sdat/UnEdited/derivatives/jMRUIFiles/mrs_sub-01_ses-01_press-ref_sub-01_PRESS_35_ref_jMRUI_REF.TXT

PointsInDataset: 2048
DatasetsInFile: 1
SamplingInterval: 5.000000E-01
ZeroOrderPhase: 0E+00
BeginTime: 0E+00
TransmitterFrequency: 1.277509E+08
MagneticField: 3.000467E+00
TypeOfNucleus: 0E+00
NameOfPatient: No Name
DateOfExperiment: 
Spectrometer: TrioTim
AdditionalInfo: jnear


Signal and FFT
sig(real)	sig(imag)	fft(real)	fft(imag)
Signal 1 out of 1 in file
9.36996355	0.00000000	0.19365886	0.01567851
17.28169697	-0.00662745	0.20697876	0.00876877
16.26469849	-0.01247487	0.20655390	0.04785192
16.08037644	-0.01850025	0.23158360	0.04937935
15.93602984	-0.02444558	0.22363599	0.07634173
15.84972975	-0.03039151	0.22424472	0.11438388
15.74663575	-0.03623262	0.23438138	0.10621728
15.61226957	-0.04191071	0.22788468	0.14735582
15.46011207	-0.04743118	0.24424180	0.16288014
15.34222059	-0.05295322	0.24832670	0.16503958
15.23619229	-0.05843035	0.24915130	0.20264474
15.12255759	-0.06379409	0.26336950	0.20105148
14.99022471	-0.06898464	0.22855023	0.22110940
14.86268856	-0.07409762	0.26749866	0.22738192
14.72597071	-0.07906351	0.24850738	0.25452806
14.59353616	-0.08394919	0.28514696	0.29073577
14.46356792	-0.08874846	0.24920159	0.31017951
14.34578462	-0.09352750	0.28252076	0.30179147
14.22730480	-0.09821141	0.26584210	0.31989012
14.09875249	-0.10273109	0.27418237	0.30532749
13.95530004	-0.10703791	0.28607230	0.34934337
13.80367836	-0.11116893	0.29899005	0.34934058
13.66225794	-0.11526976	0.28852433	0.37217774
13.53135524	-0.11935492	0.28828179	0.33340738
13.39405669	-0.12328083	0.27388890	0.35174365
13.24415818	-0.12698067	0.30121838	0.35715784
13.09352237	-0.13055820	0.27663285	0.39121583
12.94943159	-0.13408800	0.28495075	0.39690097
12.82126151	-0.13767827	0.27643761	0.41942660
12.68583845	-0.14108960	0.24708333	0.42481703
12.53451695	-0.14421417	0.29062262	0.44542956
12.38702561	-0.14726825	0.26399060	0.46975586
12.24395278	-0.15026345	0.24656762	0.48814453
12.10462825	-0.15319638	0.22042877	0.48704474
11.96774993	-0.15605438	0.23687802	0.52313050
11.83311768	-0.15883757	0.26952495	0.54818417
11.69244308	-0.16143410	0.26954453	0.54393337
11.55385810	-0.16395242	0.26413547	0.54708792
11.41347486	-0.16633826	0.26170197	0.59283304
11.28427620	-0.16878375	0.24324196	0.56981875
11.15273542	-0.17109424	0.23160440	0.62020185
11.02555213	-0.17337239	0.23386283	0.63765345
10.89741857	-0.17553770	0.24725565	0.65357891
10.76774562	-0.17757938	0.23994059	0.67261413
10.62833250	-0.17935726	0.20911676	0.69389260
10.50810600	-0.18135937	0.23897594	0.70752439
10.38504006	-0.18321920	0.25149157	0.74064357
10.26529303	-0.18504450	0.26650841	0.75882292
10.13055101	-0.18650191	0.26707310	0.77853255
10.00662029	-0.18805919	0.26044946	0.78411460
9.87969388	-0.18946398	0.27137349	0.80616103
9.76055900	-0.19092385	0.27109430	0.86888779
9.63634514	-0.19219107	0.30059114	0.82392666
9.52900104	-0.19370596	0.29280629	0.82650105
9.41365697	-0.19497285	0.27848554	0.83738973
9.29300457	-0.19603932	0.28780047	0.86308494
9.17530025	-0.19707658	0.27000990	0.89784021
9.05900638	-0.19805442	0.29156877	0.91497397
8.94483768	-0.19899035	0.30522478	0.90086460
8.83658012	-0.19997250	0.29484256	0.91982182
8.72075922	-0.20069758	0.25942583	0.95464373
8.60197824	-0.20126457	0.28349096	0.96634588
8.49034569	-0.20191047	0.27010837	0.99068288
8.38534193	-0.20263094	0.27954791	0.97584633
8.28447786	-0.20337252	0.28429550	1.02952347
8.18813237	-0.20414940	0.28610560	1.02495096
8.08313121	-0.20463327	0.29114489	1.03981135
7.97988948	-0.20508184	0.29526394	1.04689004
7.87207975	-0.20533207	0.30749865	1.07095545
7.76707250	-0.20557380	0.32389331	1.10842147
7.66839422	-0.20590493	0.31391949	1.10931573
7.57379217	-0.20627139	0.30708897	1.11614872
7.47772520	-0.20652485	0.31985943	1.11423303
7.38483699	-0.20679364	0.30045928	1.12992570
7.28818954	-0.20688448	0.32991489	1.14588297
7.19705847	-0.20705990	0.29740256	1.17743799
7.11246350	-0.20735598	0.33000058	1.17760653
7.02555331	-0.20751880	0.32044647	1.18661957
6.93533138	-0.20751587	0.30731544	1.19385525
6.83360508	-0.20709509	0.30612518	1.20052434
6.74916697	-0.20712684	0.32902091	1.21045978
6.66694817	-0.20716279	0.30828002	1.24445978
6.58523388	-0.20715154	0.30590638	1.22248054
6.50296065	-0.20705983	0.28420490	1.25539674
6.42294168	-0.20697765	0.27335995	1.26594914
6.34092437	-0.20676893	0.27643187	1.32788893
6.25838060	-0.20647993	0.30556094	1.31222726
6.17498785	-0.20609928	0.31409047	1.36877359
6.09483807	-0.20576414	0.28099334	1.38322278
6.01301866	-0.20531051	0.29081601	1.38158115
5.92844248	-0.20469892	0.29810676	1.39327404
5.84758441	-0.20415225	0.31562418	1.42370182
5.77145908	-0.20371060	0.30379190	1.42590002
5.70382171	-0.20351340	0.29910269	1.44887714
5.63677226	-0.20328552	0.30501907	1.46099561
5.56543834	-0.20285005	0.31457179	1.48045789
5.49202043	-0.20228309	0.30394398	1.49776773
5.41748815	-0.20161833	0.31568630	1.49017702
5.34548689	-0.20099156	0.33130393	1.53023190
5.28001106	-0.20055740	0.32634590	1.56785962
5.21282677	-0.20000746	0.32408035	1.55481186
5.14430806	-0.19935426	0.32955581	1.56077333
5.07556343	-0.19863965	0.32720655	1.56036607
5.00956625	-0.19798087	0.32647381	1.61017700
4.94454859	-0.19731054	0.31516191	1.60129570
4.88646503	-0.19686968	0.33517485	1.61927013
4.82520001	-0.19625486	0.33936501	1.63884127
4.76076347	-0.19546282	0.32899624	1.68125885
4.69904719	-0.19473406	0.34373911	1.66438207
4.63092790	-0.19369013	0.34093142	1.67246005
4.57046667	-0.19291717	0.34163589	1.68243656
4.51251502	-0.19220470	0.32937217	1.68267066
4.46191611	-0.19176376	0.31570844	1.72163788
4.40357856	-0.19094843	0.32123240	1.74499852
4.34521804	-0.19008733	0.34383891	1.72980627
4.28828864	-0.18924459	0.31487228	1.74628380
4.23115392	-0.18834902	0.29282705	1.76684125
4.17846407	-0.18760916	0.32525517	1.78129265
4.12379093	-0.18673906	0.31834528	1.81376312
4.06946651	-0.18584291	0.29557420	1.82348205
4.01507424	-0.18490195	0.29238946	1.83577928
3.96302011	-0.18402780	0.32179924	1.89023843
3.91824613	-0.18345456	0.34861779	1.88603698
3.87189357	-0.18277244	0.32295739	1.88453171
3.82093912	-0.18183575	0.33834274	1.89637238
3.76855028	-0.18079112	0.31026814	1.92223956
3.71814037	-0.17980197	0.33068890	1.92906669
3.66891280	-0.17883175	0.34661638	1.97356124
3.62091301	-0.17788405	0.34396551	1.99572032
3.57835862	-0.17716911	0.34774444	1.99562999
3.53129219	-0.17619637	0.34717162	2.01569327
3.48564370	-0.17525878	0.34709913	2.03270680
3.43719266	-0.17414416	0.35944621	2.07382267
3.39183156	-0.17315007	0.34368080	2.08152811
3.35070625	-0.17233902	0.36520573	2.07695147
3.31095900	-0.17156779	0.37429844	2.11191238
3.26756709	-0.17057579	0.37653423	2.08643540
3.22341701	-0.16951059	0.33289570	2.10181684
3.17933594	-0.16841515	0.34507538	2.11440528
3.13871803	-0.16747063	0.32956081	2.13575976
3.10156396	-0.16668107	0.32281298	2.18103525
3.06613923	-0.16595658	0.32574756	2.18172558
3.02578063	-0.16493594	0.34781845	2.18098609
2.98735558	-0.16399045	0.31238816	2.25543356
2.94393711	-0.16273941	0.32883944	2.24671350
2.90464898	-0.16168493	0.37046920	2.25830156
2.86452162	-0.16055323	0.34752413	2.29407923
2.82946926	-0.15967710	0.38253987	2.29480963
2.79340723	-0.15871669	0.39791788	2.33075963
2.75676530	-0.15769540	0.37805025	2.34284309
2.72114560	-0.15670483	0.36797523	2.29170163
2.68585530	-0.15570599	0.40379845	2.32298685
2.65559298	-0.15497345	0.37313603	2.34328796
2.62179029	-0.15400971	0.35564352	2.33510359
2.58717821	-0.15297213	0.37470025	2.35548289
2.55182047	-0.15186359	0.32650086	2.37914283
2.51746338	-0.15078781	0.35669228	2.41494162
2.48214554	-0.14962772	0.35355891	2.43713629
2.44897118	-0.14857052	0.37899106	2.43291020
2.42206795	-0.14787068	0.37913480	2.45860753
2.39065205	-0.14687294	0.36612578	2.47473600
2.35800343	-0.14577485	0.36854196	2.51444244
2.32617885	-0.14470292	0.37532285	2.50658487
2.29346544	-0.14355090	0.36516126	2.53925082
2.26659284	-0.14274156	0.37957995	2.52213788
2.23686368	-0.14173058	0.38101521	2.57159871
2.20668081	-0.14066782	0.36327574	2.57422270
2.17783296	-0.13966748	0.37883381	2.58803673
2.15104792	-0.13877805	0.38867234	2.58470979
2.12263420	-0.13776232	0.39048065	2.59314878
2.09562480	-0.13681644	0.39025044	2.62972200
2.06747464	-0.13577487	0.38505784	2.66706529
2.03894311	-0.13468647	0.36796823	2.65263547
2.01286819	-0.13373935	0.38669205	2.69770093
1.98273249	-0.13250082	0.39207421	2.69753761
1.95652337	-0.13150302	0.37191596	2.73673715
1.93099662	-0.13053119	0.40076189	2.73423795
1.90542370	-0.12953660	0.36056343	2.73376503
1.88131770	-0.12862263	0.39851331	2.76507812
1.85547697	-0.12757085	0.40016488	2.76929092
1.83159197	-0.12663441	0.38702103	2.79227755
1.80612339	-0.12556951	0.40091615	2.82355582
1.78416748	-0.12473059	0.39819645	2.83222603
1.76114475	-0.12379978	0.43011300	2.85483446
1.73582158	-0.12268868	0.43118446	2.85375588
1.70961509	-0.12149531	0.44044041	2.88032525
1.68511322	-0.12040358	0.43211766	2.89120140
1.66319854	-0.11947885	0.41898358	2.89706646
1.64240560	-0.11861827	0.42825623	2.91144002
1.62019166	-0.11763853	0.42803059	2.93111902
1.59615386	-0.11650856	0.38710729	2.95557711
1.57400786	-0.11549890	0.41048024	2.96586593
1.55002280	-0.11433655	0.41242940	2.98475181
1.52860512	-0.11334611	0.41311918	2.98843299
1.50850316	-0.11243725	0.40480228	3.01055295
1.48778452	-0.11146671	0.39972514	3.00587383
1.46619587	-0.11041472	0.42198595	3.04244480
1.44638654	-0.10948078	0.43093404	3.07047592
1.42555571	-0.10845388	0.43086461	3.08730948
1.40572460	-0.10748739	0.41211314	3.10618806
1.38699083	-0.10658996	0.41498280	3.12888573
1.36733296	-0.10560673	0.44063371	3.15102964
1.34825835	-0.10465365	0.45377056	3.16954476
1.32789724	-0.10358552	0.43503882	3.18284033
1.30867215	-0.10259076	0.44145072	3.18896896
1.28997142	-0.10162251	0.45520465	3.19316846
1.27189180	-0.10068902	0.45515422	3.20899407
1.25330674	-0.09970140	0.45397189	3.23045625
1.23591842	-0.09879513	0.43804941	3.24695909
