jMRUI Data Textfile

Filename: /Users/Georg/Documents/MATLAB/osprey/exampledata/sdat/UnEdited/derivatives/jMRUIFiles/mrs_sub-02_ses-01_press-ref_sub-02_PRESS_35_ref_jMRUI_REF.TXT

PointsInDataset: 2048
DatasetsInFile: 1
SamplingInterval: 5.000000E-01
ZeroOrderPhase: 0E+00
BeginTime: 0E+00
TransmitterFrequency: 1.277507E+08
MagneticField: 3.000462E+00
TypeOfNucleus: 0E+00
NameOfPatient: No Name
DateOfExperiment: 
Spectrometer: TrioTim
AdditionalInfo: jnear


Signal and FFT
sig(real)	sig(imag)	fft(real)	fft(imag)
Signal 1 out of 1 in file
7.99772222	-0.00000000	0.18218825	0.01074434
14.72164603	-0.00564568	0.19426373	0.02131904
13.83311140	-0.01060987	0.19642698	0.03117934
13.69150792	-0.01575189	0.22565032	0.03016218
13.58243707	-0.02083521	0.23660231	0.07135728
13.49028650	-0.02586733	0.20954975	0.08721556
13.38416263	-0.03079663	0.18879115	0.10931495
13.27091647	-0.03562541	0.19808341	0.08012675
13.14869464	-0.04033982	0.22264527	0.10944976
13.03737314	-0.04499811	0.21823143	0.12339692
12.93255646	-0.04959598	0.22351312	0.17645596
12.83517728	-0.05414484	0.21399414	0.14138071
12.73104914	-0.05858797	0.22288218	0.17834755
12.61744414	-0.06290400	0.21474517	0.19497719
12.48944806	-0.06705565	0.21491774	0.21715004
12.37632189	-0.07119469	0.21973288	0.17760975
12.26579041	-0.07526289	0.19746334	0.23070004
12.16725842	-0.07932457	0.22582346	0.23897913
12.06495903	-0.08328469	0.22596430	0.25908907
11.95140021	-0.08708433	0.20258561	0.26614712
11.82785909	-0.09072032	0.23645548	0.29606643
11.70702338	-0.09428337	0.22419123	0.30627836
11.58775841	-0.09776701	0.24220245	0.29150270
11.47838566	-0.10124646	0.24028541	0.33340444
11.36861685	-0.10463839	0.22246159	0.32566899
11.24994646	-0.10786082	0.24724081	0.33432000
11.12808992	-0.11096047	0.25559360	0.37584784
11.01262365	-0.11403286	0.23663854	0.36119148
10.90768477	-0.11712975	0.20810693	0.36247097
10.80323160	-0.12015159	0.24423318	0.39568258
10.68794341	-0.12296867	0.24518331	0.43732933
10.56504088	-0.12560683	0.23150788	0.42426090
10.44417595	-0.12817576	0.24763817	0.44071590
10.33475581	-0.13079685	0.23277597	0.46622144
10.22748954	-0.13336212	0.24364432	0.46875596
10.11413343	-0.13576341	0.24324057	0.48913066
10.00160122	-0.13808915	0.21914889	0.47333728
9.89240013	-0.14037587	0.23979247	0.49975749
9.77761437	-0.14249748	0.24239384	0.52160747
9.66645074	-0.14458524	0.24556496	0.52273778
9.55325189	-0.14655654	0.24463644	0.52089659
9.45421763	-0.14866378	0.24896800	0.56767577
9.34610548	-0.15054885	0.24785975	0.52443535
9.22951892	-0.15221127	0.25756572	0.54591201
9.11309486	-0.15378703	0.22472170	0.58348597
9.00961772	-0.15549697	0.22948049	0.59836046
8.90998564	-0.15719539	0.22220369	0.58087504
8.80399801	-0.15870286	0.21330828	0.62507505
8.69614779	-0.16009477	0.23400007	0.64796969
8.58544753	-0.16135041	0.22050082	0.63795989
8.46881116	-0.16240732	0.20630464	0.67576572
8.36487362	-0.16362320	0.20928563	0.70369941
8.27046991	-0.16494951	0.23793578	0.71441475
8.17250133	-0.16613097	0.23913194	0.71757837
8.07417691	-0.16722994	0.24814900	0.73778065
7.97500355	-0.16823560	0.22186014	0.77400078
7.86650838	-0.16896499	0.24770985	0.78120494
7.76363532	-0.16973410	0.25502342	0.79191341
7.67168933	-0.17066739	0.26249094	0.76003759
7.57659507	-0.17145894	0.22923484	0.80185470
7.48065738	-0.17215815	0.25365444	0.79545934
7.37779647	-0.17262181	0.24991164	0.83055966
7.28430632	-0.17322943	0.27022995	0.82569507
7.19268555	-0.17381052	0.25490236	0.85290127
7.10571951	-0.17443562	0.24811478	0.85972524
7.01837803	-0.17498467	0.25739635	0.87010193
6.93158783	-0.17548070	0.25812423	0.87641509
6.83747852	-0.17572206	0.26272285	0.87510692
6.73915231	-0.17578126	0.26091629	0.89542156
6.65447142	-0.17612620	0.25149722	0.91774536
6.56803815	-0.17635914	0.24656568	0.92832720
6.48206359	-0.17653829	0.25931393	0.95109877
6.39405348	-0.17659527	0.27216164	0.95227475
6.30552934	-0.17657037	0.26115447	0.96015628
6.22787999	-0.17678625	0.25556192	0.98685968
6.14971972	-0.17692789	0.26407165	0.98493665
6.07238946	-0.17703378	0.27251788	1.00281539
5.99607606	-0.17711039	0.24960453	1.02599780
5.91533160	-0.17699589	0.26526810	1.03359238
5.83159097	-0.17672866	0.28748277	1.06078995
5.74993970	-0.17646131	0.26261090	1.06437274
5.67512619	-0.17634380	0.26085264	1.04783268
5.60441709	-0.17629801	0.23544755	1.05762211
5.53679543	-0.17629630	0.25640797	1.07942742
5.46806043	-0.17620685	0.26024036	1.08380240
5.39367869	-0.17588054	0.28957389	1.10784678
5.31953150	-0.17550491	0.26361756	1.11922370
5.25797846	-0.17549275	0.29144060	1.14081792
5.18627357	-0.17509064	0.27319699	1.14340430
5.11439286	-0.17462753	0.28999968	1.15193789
5.03852024	-0.17397143	0.24915536	1.17237742
4.97200399	-0.17358378	0.26374688	1.19290600
4.90713684	-0.17320331	0.27938754	1.19876731
4.84318700	-0.17280580	0.25071230	1.22037307
4.78647803	-0.17262037	0.25258785	1.22765134
4.72139371	-0.17208617	0.23843137	1.26255927
4.66016419	-0.17164401	0.22489881	1.25329397
4.59676942	-0.17107430	0.25185714	1.28078348
4.53569861	-0.17054333	0.24444345	1.31019414
4.47458835	-0.16996400	0.28823391	1.34014798
4.41817023	-0.16951782	0.28972060	1.33740415
4.36199151	-0.16903762	0.26911968	1.33457840
4.29998776	-0.16828636	0.29073010	1.34621465
4.23996375	-0.16756575	0.28402416	1.36189538
4.18787975	-0.16711592	0.26913508	1.38493246
4.13678817	-0.16666612	0.25243675	1.37077880
4.08404828	-0.16611007	0.27964941	1.37592760
4.02849494	-0.16539805	0.27071998	1.39297127
3.97184916	-0.16459812	0.27582668	1.40057182
3.91437929	-0.16372025	0.26832064	1.41268651
3.86224200	-0.16302335	0.27778513	1.42672790
3.81128958	-0.16233691	0.27213279	1.44943404
3.76289359	-0.16172124	0.29001415	1.44625065
3.71470499	-0.16107742	0.27453512	1.47736387
3.66402435	-0.16028761	0.28646313	1.47801345
3.61599001	-0.15957567	0.29770357	1.51749084
3.56633481	-0.15875472	0.27330274	1.54151008
3.52129851	-0.15810304	0.25756458	1.55137180
3.47609671	-0.15740930	0.27190125	1.54284698
3.42902104	-0.15659528	0.26807596	1.57527269
3.38304002	-0.15579555	0.25835957	1.59338833
3.33635515	-0.15492783	0.23471152	1.59928808
3.29447718	-0.15424934	0.24717549	1.63739645
3.25495692	-0.15365000	0.29958334	1.63939040
3.21180842	-0.15284765	0.28138314	1.67488571
3.17072348	-0.15211119	0.27942635	1.67280197
3.12288490	-0.15101658	0.30551156	1.67363115
3.08016879	-0.15013493	0.30573466	1.68487700
3.04128107	-0.14940856	0.29260988	1.72253101
3.00449182	-0.14875623	0.32590640	1.73541266
2.96271243	-0.14782667	0.29599665	1.71339539
2.92003034	-0.14681964	0.29990690	1.71145815
2.88153489	-0.14599196	0.29875549	1.73601761
2.84378495	-0.14517277	0.31663012	1.75740871
2.80362452	-0.14420061	0.32650264	1.77339206
2.76856041	-0.14346170	0.31650750	1.74947698
2.73318998	-0.14267987	0.30761067	1.78740711
2.69518103	-0.14173212	0.31028702	1.79009431
2.65358263	-0.14056505	0.30858038	1.79911738
2.61951226	-0.13976769	0.31401852	1.83347712
2.58797017	-0.13908004	0.26828922	1.82643024
2.55326560	-0.13819699	0.28323221	1.87136773
2.52288264	-0.13752287	0.29045143	1.86588247
2.48495790	-0.13641140	0.28023280	1.88404705
2.44957930	-0.13541155	0.30556455	1.89455694
2.41619667	-0.13449563	0.29659354	1.89912486
2.38291088	-0.13355949	0.29874802	1.91951091
2.35154528	-0.13270614	0.29735742	1.93828917
2.31899090	-0.13176115	0.31638439	1.96179977
2.28936928	-0.13095892	0.30461188	1.96200698
2.25814676	-0.13004173	0.31164720	1.99517209
2.22632606	-0.12906589	0.30712482	1.99849017
2.19672645	-0.12819520	0.29329110	2.00720670
2.16746306	-0.12732153	0.29911625	2.01274225
2.13669877	-0.12633663	0.31926728	2.06498893
2.10638221	-0.12535473	0.29970635	2.05225596
2.07673166	-0.12438943	0.31124122	2.07920687
2.04534096	-0.12329644	0.30531141	2.06450898
2.01742002	-0.12238982	0.34246423	2.10714176
1.99092540	-0.12154882	0.31520800	2.10656417
1.96320921	-0.12061241	0.32538149	2.12846559
1.93474642	-0.11960855	0.27990425	2.13249518
1.90884582	-0.11874219	0.30890571	2.12692730
1.88211825	-0.11780416	0.29418804	2.18409785
1.85566954	-0.11686315	0.30428362	2.19025438
1.82981858	-0.11593968	0.31524165	2.22283531
1.80373821	-0.11498171	0.31521820	2.24166328
1.77634793	-0.11391968	0.33499647	2.23547008
1.74931807	-0.11285985	0.32920117	2.25088824
1.72600991	-0.11202078	0.34325142	2.23666829
1.70572413	-0.11136111	0.36819692	2.28646075
1.68417833	-0.11060310	0.35713560	2.28694315
1.65768009	-0.10950138	0.34469221	2.30288227
1.63330494	-0.10852034	0.35702485	2.29037192
1.60575002	-0.10730807	0.37042406	2.28192011
1.58172508	-0.10631185	0.34848789	2.29105721
1.56119095	-0.10553313	0.36230532	2.30495213
1.53940740	-0.10465368	0.36311461	2.32785090
1.51749456	-0.10374863	0.33203604	2.32316760
1.49295523	-0.10264615	0.34378998	2.36314385
1.47165216	-0.10174854	0.28994019	2.37002876
1.45146380	-0.10091204	0.32784646	2.39554628
1.43317503	-0.10019281	0.31169286	2.42854677
1.41385013	-0.09938669	0.32587019	2.44536511
1.39332317	-0.09848073	0.32494951	2.44058574
1.36845944	-0.09725078	0.35558872	2.47702019
1.34556283	-0.09614225	0.35341338	2.46383788
1.32529213	-0.09520474	0.36219706	2.48880036
1.30792023	-0.09446098	0.38081063	2.50117706
1.29067933	-0.09371337	0.37506994	2.51681896
1.27234356	-0.09287257	0.36566775	2.53071624
1.25317492	-0.09195655	0.36523263	2.56440616
1.23180538	-0.09086342	0.36401170	2.53550921
1.21400179	-0.09001826	0.36654605	2.55514650
1.19699326	-0.08921866	0.38216248	2.59077764
1.17813952	-0.08826772	0.36906441	2.60029848
1.16031181	-0.08737953	0.36785823	2.60805454
1.14123816	-0.08638330	0.37263894	2.62798952
1.12311341	-0.08544458	0.37780888	2.63860438
1.10607860	-0.08457524	0.36425901	2.64460970
1.09015661	-0.08377831	0.38595344	2.66290512
1.07451676	-0.08299091	0.38839251	2.66260741
1.05712357	-0.08205537	0.37478461	2.68156606
1.04154706	-0.08124815	0.37370826	2.68518134
1.02439432	-0.08030536	0.37747906	2.71545335
1.00730239	-0.07935416	0.37271868	2.70202122
0.99149831	-0.07849173	0.36554259	2.72540264
0.97631055	-0.07766617	0.35589676	2.74100668
0.96149402	-0.07685858	0.36355257	2.76195151
