 $SEQPAR
 ECHOT= 30.00
 SEQ= 'PRESS'
 HZPPPM= 123.261300
 NUNFIL= 2080
 DELTAT= 0.000500
 $END
 $NMID
 id='ANONYMOUS ', fmtdat='(2E15.6)'
 volume=27.0
 tramp=1.0
 $END
   1.256396e-02   6.776264e-21
   1.459939e-02   1.185864e-04
   1.327612e-02   2.156899e-04
   1.337812e-02   3.260565e-04
   1.350608e-02   4.389678e-04
   1.352204e-02   5.494668e-04
   1.319507e-02   6.435727e-04
   1.298206e-02   7.389252e-04
   1.305294e-02   8.493773e-04
   1.302483e-02   9.538493e-04
   1.277518e-02   1.039954e-03
   1.261556e-02   1.130180e-03
   1.264541e-02   1.236469e-03
   1.259790e-02   1.335213e-03
   1.238121e-02   1.414032e-03
   1.220902e-02   1.494923e-03
   1.217875e-02   1.591724e-03
   1.213530e-02   1.686407e-03
   1.197986e-02   1.764107e-03
   1.181330e-02   1.837734e-03
   1.173438e-02   1.923200e-03
   1.167965e-02   2.011779e-03
   1.154966e-02   2.086122e-03
   1.137799e-02   2.150691e-03
   1.127010e-02   2.225256e-03
   1.121781e-02   2.309755e-03
   1.111236e-02   2.382289e-03
   1.094230e-02   2.438959e-03
   1.081492e-02   2.502945e-03
   1.076005e-02   2.582502e-03
   1.067579e-02   2.654170e-03
   1.052308e-02   2.707145e-03
   1.038535e-02   2.761841e-03
   1.030344e-02   2.829863e-03
   1.021363e-02   2.894618e-03
   1.007926e-02   2.945187e-03
   9.950656e-03   2.995544e-03
   9.861792e-03   3.056370e-03
   9.773042e-03   3.116092e-03
   9.647832e-03   3.162727e-03
   9.514968e-03   3.204993e-03
   9.415791e-03   3.256980e-03
   9.334550e-03   3.314011e-03
   9.226235e-03   3.360188e-03
   9.092054e-03   3.395216e-03
   8.977689e-03   3.435853e-03
   8.892270e-03   3.486229e-03
   8.794224e-03   3.530466e-03
   8.670345e-03   3.562779e-03
   8.556453e-03   3.597487e-03
   8.464980e-03   3.640218e-03
   8.361908e-03   3.676658e-03
   8.237956e-03   3.702295e-03
   8.126239e-03   3.731716e-03
   8.039978e-03   3.771478e-03
   7.951751e-03   3.809195e-03
   7.840822e-03   3.834665e-03
   7.725268e-03   3.856221e-03
   7.627036e-03   3.884891e-03
   7.538398e-03   3.917181e-03
   7.438112e-03   3.942126e-03
   7.326986e-03   3.959792e-03
   7.224879e-03   3.980769e-03
   7.133598e-03   4.006349e-03
   7.034816e-03   4.026381e-03
   6.928001e-03   4.040303e-03
   6.834091e-03   4.060281e-03
   6.752343e-03   4.086280e-03
   6.659962e-03   4.104648e-03
   6.553291e-03   4.112724e-03
   6.452404e-03   4.122837e-03
   6.364725e-03   4.139999e-03
   6.275138e-03   4.154648e-03
   6.176908e-03   4.162169e-03
   6.082004e-03   4.170448e-03
   5.995018e-03   4.182794e-03
   5.908025e-03   4.193855e-03
   5.816707e-03   4.200500e-03
   5.727743e-03   4.207459e-03
   5.645028e-03   4.217718e-03
   5.560236e-03   4.225171e-03
   5.467118e-03   4.224897e-03
   5.373934e-03   4.223045e-03
   5.290003e-03   4.227040e-03
   5.211560e-03   4.234173e-03
   5.129813e-03   4.237389e-03
   5.045124e-03   4.236840e-03
   4.964261e-03   4.238165e-03
   4.885660e-03   4.240150e-03
   4.803693e-03   4.237907e-03
   4.720282e-03   4.232995e-03
   4.640527e-03   4.229979e-03
   4.562644e-03   4.227347e-03
   4.481113e-03   4.219964e-03
   4.398062e-03   4.209679e-03
   4.320328e-03   4.203044e-03
   4.249215e-03   4.201578e-03
   4.178417e-03   4.199241e-03
   4.102955e-03   4.190942e-03
   4.026278e-03   4.180005e-03
   3.953942e-03   4.172208e-03
   3.883961e-03   4.165616e-03
   3.811430e-03   4.154981e-03
   3.739644e-03   4.143793e-03
   3.671702e-03   4.135554e-03
   3.603689e-03   4.125969e-03
   3.533055e-03   4.112037e-03
   3.463582e-03   4.098056e-03
   3.400059e-03   4.089819e-03
   3.339232e-03   4.083675e-03
   3.274096e-03   4.071053e-03
   3.205747e-03   4.053042e-03
   3.139041e-03   4.035647e-03
   3.075849e-03   4.021384e-03
   3.012960e-03   4.006179e-03
   2.949833e-03   3.989289e-03
   2.889343e-03   3.974614e-03
   2.830920e-03   3.961507e-03
   2.770335e-03   3.944059e-03
   2.709002e-03   3.924124e-03
   2.650499e-03   3.906877e-03
   2.594820e-03   3.892487e-03
   2.538265e-03   3.875489e-03
   2.480033e-03   3.854527e-03
   2.423024e-03   3.834006e-03
   2.368752e-03   3.816423e-03
   2.315841e-03   3.799712e-03
   2.263061e-03   3.781898e-03
   2.210340e-03   3.762825e-03
   2.157806e-03   3.742672e-03
   2.105235e-03   3.721012e-03
   2.053057e-03   3.698565e-03
   2.002631e-03   3.677806e-03
   1.953698e-03   3.658384e-03
   1.905517e-03   3.638990e-03
   1.856456e-03   3.616475e-03
   1.807030e-03   3.591703e-03
   1.759227e-03   3.568592e-03
   1.712978e-03   3.547135e-03
   1.667687e-03   3.526207e-03
   1.622898e-03   3.504882e-03
   1.578063e-03   3.481952e-03
   1.533452e-03   3.457950e-03
   1.489438e-03   3.433691e-03
   1.446649e-03   3.410666e-03
   1.405465e-03   3.389903e-03
   1.365139e-03   3.369745e-03
   1.324594e-03   3.347541e-03
   1.283377e-03   3.321995e-03
   1.242576e-03   3.295770e-03
   1.203109e-03   3.271340e-03
   1.164630e-03   3.247906e-03
   1.126443e-03   3.223583e-03
   1.088984e-03   3.199607e-03
   1.052444e-03   3.176606e-03
   1.016274e-03   3.152990e-03
   9.805463e-04   3.128961e-03
   9.457276e-04   3.106044e-03
   9.113278e-04   3.082705e-03
   8.771232e-04   3.058154e-03
   8.428782e-04   3.031455e-03
   8.089370e-04   3.003704e-03
   7.762079e-04   2.978309e-03
   7.445007e-04   2.954787e-03
   7.132504e-04   2.931043e-03
   6.823490e-04   2.906620e-03
   6.518211e-04   2.881578e-03
   6.217567e-04   2.856285e-03
   5.924711e-04   2.832248e-03
   5.636375e-04   2.808025e-03
   5.352866e-04   2.783781e-03
   5.073236e-04   2.759026e-03
   4.796341e-04   2.733068e-03
   4.523812e-04   2.706730e-03
   4.259648e-04   2.682503e-03
   4.002578e-04   2.659928e-03
   3.750285e-04   2.637693e-03
   3.500111e-04   2.613912e-03
   3.251856e-04   2.588155e-03
   3.006270e-04   2.560678e-03
   2.766355e-04   2.533884e-03
   2.532988e-04   2.508846e-03
   2.305205e-04   2.485034e-03
   2.081872e-04   2.461508e-03
   1.861924e-04   2.437013e-03
   1.646221e-04   2.412510e-03
   1.435026e-04   2.388490e-03
   1.228781e-04   2.366097e-03
   1.026574e-04   2.344222e-03
   8.275945e-05   2.321034e-03
   6.321499e-05   2.296587e-03
   4.403340e-05   2.269927e-03
   2.529866e-05   2.243958e-03
   6.997342e-06   2.220572e-03
  -1.092871e-05   2.198306e-03
  -2.849810e-05   2.176317e-03
  -4.570348e-05   2.153834e-03
  -6.252978e-05   2.130680e-03
  -7.896037e-05   2.106791e-03
  -9.504088e-05   2.083519e-03
  -1.107955e-04   2.060999e-03
  -1.262016e-04   2.038538e-03
  -1.412484e-04   2.015938e-03
  -1.558353e-04   1.991937e-03
  -1.700564e-04   1.968003e-03
  -1.840321e-04   1.945377e-03
  -1.978100e-04   1.924196e-03
  -2.112571e-04   1.902929e-03
  -2.242778e-04   1.880783e-03
  -2.369535e-04   1.858558e-03
  -2.492564e-04   1.836055e-03
  -2.613081e-04   1.814160e-03
  -2.731654e-04   1.793142e-03
  -2.847795e-04   1.772556e-03
  -2.960083e-04   1.751490e-03
  -3.069506e-04   1.730568e-03
  -3.176531e-04   1.710017e-03
  -3.282132e-04   1.690289e-03
  -3.384547e-04   1.670407e-03
  -3.483555e-04   1.650284e-03
  -3.578133e-04   1.629480e-03
  -3.668327e-04   1.608090e-03
  -3.754759e-04   1.586440e-03
  -3.840451e-04   1.565790e-03
  -3.927215e-04   1.546750e-03
  -4.011348e-04   1.527753e-03
  -4.092807e-04   1.508778e-03
  -4.167656e-04   1.488416e-03
  -4.236699e-04   1.467074e-03
  -4.308876e-04   1.447844e-03
  -4.383376e-04   1.430279e-03
  -4.455535e-04   1.412761e-03
  -4.523091e-04   1.394590e-03
  -4.585847e-04   1.375759e-03
  -4.644954e-04   1.356659e-03
  -4.704581e-04   1.338499e-03
  -4.763581e-04   1.320890e-03
  -4.820014e-04   1.303269e-03
  -4.872913e-04   1.285384e-03
  -4.921060e-04   1.266941e-03
  -4.965609e-04   1.248273e-03
  -5.007877e-04   1.229721e-03
  -5.052559e-04   1.212406e-03
  -5.102729e-04   1.196970e-03
  -5.149683e-04   1.181293e-03
  -5.187925e-04   1.164160e-03
  -5.223691e-04   1.147035e-03
  -5.258065e-04   1.130155e-03
  -5.291716e-04   1.113647e-03
  -5.326438e-04   1.097860e-03
  -5.357914e-04   1.081883e-03
  -5.383743e-04   1.065254e-03
  -5.407872e-04   1.048779e-03
  -5.432738e-04   1.032917e-03
  -5.459684e-04   1.017886e-03
  -5.486573e-04   1.003250e-03
  -5.513120e-04   9.889373e-04
  -5.535043e-04   9.741797e-04
  -5.549947e-04   9.585907e-04
  -5.564164e-04   9.432928e-04
  -5.578064e-04   9.283348e-04
  -5.591499e-04   9.136775e-04
  -5.605333e-04   8.994468e-04
  -5.617923e-04   8.853640e-04
  -5.627357e-04   8.711284e-04
  -5.639242e-04   8.576041e-04
  -5.652606e-04   8.446117e-04
  -5.662834e-04   8.314491e-04
  -5.670587e-04   8.182230e-04
  -5.672037e-04   8.043971e-04
  -5.668455e-04   7.901824e-04
  -5.661445e-04   7.758220e-04
  -5.661881e-04   7.627920e-04
  -5.670234e-04   7.510922e-04
  -5.676833e-04   7.393996e-04
  -5.677509e-04   7.271827e-04
  -5.672808e-04   7.145389e-04
  -5.666722e-04   7.019872e-04
  -5.663655e-04   6.900633e-04
  -5.661637e-04   6.785036e-04
  -5.660000e-04   6.672151e-04
  -5.653302e-04   6.555564e-04
  -5.638735e-04   6.432284e-04
  -5.620993e-04   6.307939e-04
  -5.614426e-04   6.198464e-04
  -5.610845e-04   6.094284e-04
  -5.606163e-04   5.990807e-04
  -5.599367e-04   5.886965e-04
  -5.583208e-04   5.775304e-04
  -5.562817e-04   5.661457e-04
  -5.544473e-04   5.551857e-04
  -5.531880e-04   5.449986e-04
  -5.521140e-04   5.351732e-04
  -5.511646e-04   5.256373e-04
  -5.489815e-04   5.151059e-04
  -5.467203e-04   5.046969e-04
  -5.449257e-04   4.949030e-04
  -5.433997e-04   4.855215e-04
  -5.426261e-04   4.769611e-04
  -5.412009e-04   4.679712e-04
  -5.388298e-04   4.583250e-04
  -5.361685e-04   4.486068e-04
  -5.335255e-04   4.390777e-04
  -5.316110e-04   4.303075e-04
  -5.302938e-04   4.221582e-04
  -5.286300e-04   4.138637e-04
  -5.261445e-04   4.050681e-04
  -5.235114e-04   3.963103e-04
  -5.207658e-04   3.876183e-04
  -5.187005e-04   3.795729e-04
  -5.166948e-04   3.716989e-04
  -5.142193e-04   3.636165e-04
  -5.115562e-04   3.555360e-04
  -5.090826e-04   3.477188e-04
  -5.063526e-04   3.398556e-04
  -5.039362e-04   3.323287e-04
  -5.018372e-04   3.251266e-04
