 $SEQPAR
 ECHOT= 30.00
 SEQ= 'PRESS'
 HZPPPM= 123.261581
 NUNFIL= 2080
 DELTAT= 0.000500
 $END
 $NMID
 id='ANONYMOUS ', fmtdat='(2E15.6)'
 volume=27.0
 tramp=1.0
 $END
   1.015695e-02  -5.421011e-20
   1.174371e-02   9.539075e-05
   1.077861e-02   1.751146e-04
   1.097309e-02   2.674407e-04
   1.098414e-02   3.570016e-04
   1.087812e-02   4.420326e-04
   1.069327e-02   5.215514e-04
   1.064481e-02   6.058930e-04
   1.063365e-02   6.919516e-04
   1.050609e-02   7.693959e-04
   1.037204e-02   8.443301e-04
   1.033265e-02   9.256650e-04
   1.029195e-02   1.006349e-03
   1.018392e-02   1.079364e-03
   1.007142e-02   1.150238e-03
   9.994108e-03   1.223723e-03
   9.919154e-03   1.296405e-03
   9.830475e-03   1.366116e-03
   9.744481e-03   1.434937e-03
   9.664596e-03   1.503474e-03
   9.579953e-03   1.570106e-03
   9.486173e-03   1.633964e-03
   9.390355e-03   1.696108e-03
   9.299745e-03   1.757860e-03
   9.213680e-03   1.819225e-03
   9.127947e-03   1.879455e-03
   9.037507e-03   1.937483e-03
   8.938595e-03   1.992353e-03
   8.845479e-03   2.047154e-03
   8.768655e-03   2.104556e-03
   8.689497e-03   2.160351e-03
   8.593258e-03   2.210689e-03
   8.497654e-03   2.259841e-03
   8.411002e-03   2.310107e-03
   8.319144e-03   2.357712e-03
   8.226954e-03   2.403944e-03
   8.145580e-03   2.452150e-03
   8.061256e-03   2.498354e-03
   7.966752e-03   2.540171e-03
   7.878121e-03   2.582592e-03
   7.794511e-03   2.625486e-03
   7.702722e-03   2.664425e-03
   7.614967e-03   2.703520e-03
   7.538197e-03   2.745413e-03
   7.449144e-03   2.781716e-03
   7.346768e-03   2.811690e-03
   7.260144e-03   2.846359e-03
   7.188312e-03   2.885775e-03
   7.102480e-03   2.918526e-03
   7.006459e-03   2.945813e-03
   6.921124e-03   2.976318e-03
   6.838655e-03   3.006905e-03
   6.745686e-03   3.031648e-03
   6.654723e-03   3.055977e-03
   6.578264e-03   3.085810e-03
   6.503968e-03   3.115659e-03
   6.418245e-03   3.138942e-03
   6.327500e-03   3.158506e-03
   6.244591e-03   3.180740e-03
   6.167693e-03   3.204929e-03
   6.087542e-03   3.226346e-03
   6.003178e-03   3.244362e-03
   5.920652e-03   3.262174e-03
   5.840545e-03   3.280158e-03
   5.758104e-03   3.295663e-03
   5.676412e-03   3.310404e-03
   5.600995e-03   3.327681e-03
   5.528421e-03   3.345615e-03
   5.452205e-03   3.360296e-03
   5.370773e-03   3.370607e-03
   5.289390e-03   3.379725e-03
   5.212681e-03   3.390650e-03
   5.138085e-03   3.401837e-03
   5.061016e-03   3.410260e-03
   4.983460e-03   3.417183e-03
   4.910007e-03   3.425780e-03
   4.837509e-03   3.433951e-03
   4.763141e-03   3.439683e-03
   4.691622e-03   3.446361e-03
   4.623801e-03   3.454712e-03
   4.552762e-03   3.459612e-03
   4.475925e-03   3.458930e-03
   4.401716e-03   3.459050e-03
   4.333331e-03   3.462611e-03
   4.265817e-03   3.465808e-03
   4.197687e-03   3.467434e-03
   4.131366e-03   3.469488e-03
   4.065734e-03   3.471072e-03
   3.997784e-03   3.469595e-03
   3.929131e-03   3.466363e-03
   3.863409e-03   3.464591e-03
   3.798214e-03   3.462197e-03
   3.730828e-03   3.456670e-03
   3.662812e-03   3.449364e-03
   3.597199e-03   3.443131e-03
   3.533795e-03   3.437876e-03
   3.472728e-03   3.433809e-03
   3.413525e-03   3.430550e-03
   3.354214e-03   3.426156e-03
   3.293496e-03   3.419257e-03
   3.232269e-03   3.410710e-03
   3.172692e-03   3.402780e-03
   3.114657e-03   3.395416e-03
   3.057359e-03   3.387786e-03
   2.999737e-03   3.378712e-03
   2.941709e-03   3.368062e-03
   2.884170e-03   3.356830e-03
   2.828519e-03   3.346672e-03
   2.774411e-03   3.337262e-03
   2.721451e-03   3.328182e-03
   2.668670e-03   3.318273e-03
   2.614393e-03   3.305404e-03
   2.559051e-03   3.290008e-03
   2.504761e-03   3.274754e-03
   2.452586e-03   3.261093e-03
   2.402097e-03   3.248558e-03
   2.351752e-03   3.235113e-03
   2.301738e-03   3.220999e-03
   2.252042e-03   3.206192e-03
   2.202467e-03   3.190397e-03
   2.153973e-03   3.175005e-03
   2.106774e-03   3.160385e-03
   2.060096e-03   3.145423e-03
   2.012996e-03   3.128662e-03
   1.966111e-03   3.111038e-03
   1.920613e-03   3.094417e-03
   1.876752e-03   3.079294e-03
   1.833451e-03   3.063974e-03
   1.790359e-03   3.047876e-03
   1.747372e-03   3.030799e-03
   1.704104e-03   3.012029e-03
   1.661192e-03   2.992641e-03
   1.619432e-03   2.974083e-03
   1.579323e-03   2.957368e-03
   1.539648e-03   2.940303e-03
   1.499547e-03   2.921216e-03
   1.459154e-03   2.900274e-03
   1.419752e-03   2.879985e-03
   1.381593e-03   2.860942e-03
   1.344279e-03   2.842402e-03
   1.307796e-03   2.824393e-03
   1.271573e-03   2.805711e-03
   1.235035e-03   2.785036e-03
   1.198297e-03   2.762527e-03
   1.163151e-03   2.742302e-03
   1.129467e-03   2.724231e-03
   1.096434e-03   2.706489e-03
   1.063476e-03   2.687659e-03
   1.030290e-03   2.666906e-03
   9.972137e-04   2.645001e-03
   9.648023e-04   2.623390e-03
   9.329794e-04   2.601905e-03
   9.020429e-04   2.581433e-03
   8.718827e-04   2.561752e-03
   8.419507e-04   2.541296e-03
   8.122200e-04   2.519937e-03
   7.831621e-04   2.499126e-03
   7.549916e-04   2.479637e-03
   7.272905e-04   2.460197e-03
   6.995500e-04   2.439059e-03
   6.719520e-04   2.416738e-03
   6.447443e-04   2.394060e-03
   6.181335e-04   2.371807e-03
   5.923096e-04   2.350798e-03
   5.670134e-04   2.330125e-03
   5.422237e-04   2.309756e-03
   5.177647e-04   2.288973e-03
   4.935448e-04   2.267327e-03
   4.698257e-04   2.245989e-03
   4.467127e-04   2.225545e-03
   4.240903e-04   2.205537e-03
   4.016334e-04   2.184280e-03
   3.795533e-04   2.162824e-03
   3.577445e-04   2.140533e-03
   3.365134e-04   2.119230e-03
   3.158846e-04   2.099269e-03
   2.957384e-04   2.080070e-03
   2.759730e-04   2.061041e-03
   2.562723e-04   2.039727e-03
   2.368383e-04   2.017398e-03
   2.178012e-04   1.995044e-03
   1.992555e-04   1.973630e-03
   1.811868e-04   1.953284e-03
   1.634746e-04   1.932926e-03
   1.461118e-04   1.912496e-03
   1.291091e-04   1.892168e-03
   1.124411e-04   1.871603e-03
   9.617934e-05   1.852119e-03
   8.028863e-05   1.833569e-03
   6.470131e-05   1.814762e-03
   4.939402e-05   1.794704e-03
   3.439206e-05   1.773238e-03
   1.973796e-05   1.751283e-03
   5.446284e-06   1.730314e-03
  -8.506428e-06   1.709830e-03
  -2.214474e-05   1.690663e-03
  -3.549986e-05   1.672689e-03
  -4.855583e-05   1.654316e-03
  -6.128436e-05   1.635007e-03
  -7.369233e-05   1.615378e-03
  -8.579929e-05   1.595913e-03
  -9.761445e-05   1.576674e-03
  -1.091369e-04   1.557551e-03
  -1.203677e-04   1.538504e-03
  -1.313189e-04   1.519641e-03
  -1.420038e-04   1.501041e-03
  -1.524231e-04   1.482640e-03
  -1.625974e-04   1.464568e-03
  -1.724655e-04   1.446240e-03
  -1.821206e-04   1.428429e-03
  -1.914760e-04   1.410396e-03
  -2.004908e-04   1.391891e-03
  -2.093015e-04   1.373884e-03
  -2.178964e-04   1.356220e-03
  -2.262407e-04   1.338641e-03
  -2.342973e-04   1.320923e-03
  -2.421313e-04   1.303433e-03
  -2.498433e-04   1.286658e-03
  -2.573358e-04   1.270027e-03
  -2.645741e-04   1.253356e-03
  -2.715814e-04   1.236756e-03
  -2.782226e-04   1.219626e-03
  -2.845408e-04   1.202204e-03
  -2.906184e-04   1.184859e-03
  -2.966861e-04   1.168491e-03
  -3.026804e-04   1.152762e-03
  -3.083820e-04   1.136805e-03
  -3.136537e-04   1.120149e-03
  -3.186684e-04   1.103460e-03
  -3.234867e-04   1.086945e-03
  -3.283585e-04   1.071405e-03
  -3.333305e-04   1.056909e-03
  -3.379625e-04   1.042014e-03
  -3.423299e-04   1.026979e-03
  -3.464326e-04   1.011817e-03
  -3.502743e-04   9.965501e-04
  -3.540747e-04   9.817976e-04
  -3.578598e-04   9.675932e-04
  -3.613055e-04   9.530437e-04
  -3.645563e-04   9.385483e-04
  -3.674965e-04   9.238139e-04
  -3.700702e-04   9.087226e-04
  -3.727163e-04   8.943543e-04
  -3.756106e-04   8.810755e-04
  -3.784190e-04   8.680500e-04
  -3.808495e-04   8.546081e-04
  -3.831963e-04   8.414249e-04
  -3.852122e-04   8.279553e-04
  -3.868365e-04   8.140914e-04
  -3.887201e-04   8.012021e-04
  -3.905566e-04   7.886121e-04
  -3.920708e-04   7.757614e-04
  -3.931638e-04   7.624761e-04
  -3.940444e-04   7.491814e-04
  -3.953059e-04   7.369875e-04
  -3.965273e-04   7.250637e-04
  -3.975897e-04   7.131840e-04
  -3.985270e-04   7.014086e-04
  -3.992077e-04   6.895067e-04
  -3.996179e-04   6.774648e-04
  -3.997274e-04   6.652430e-04
  -4.000004e-04   6.536126e-04
  -4.002665e-04   6.422714e-04
  -4.002054e-04   6.307023e-04
  -4.002040e-04   6.195189e-04
  -4.002349e-04   6.086623e-04
  -4.001399e-04   5.978822e-04
  -4.003437e-04   5.878007e-04
  -4.003946e-04   5.777331e-04
  -3.996285e-04   5.667393e-04
  -3.986953e-04   5.557752e-04
  -3.975956e-04   5.448434e-04
  -3.965158e-04   5.341969e-04
  -3.959583e-04   5.244899e-04
  -3.953943e-04   5.149902e-04
  -3.947113e-04   5.055460e-04
  -3.936585e-04   4.958415e-04
  -3.924863e-04   4.862026e-04
  -3.915013e-04   4.770026e-04
  -3.903524e-04   4.678024e-04
  -3.895017e-04   4.591496e-04
  -3.881601e-04   4.501053e-04
  -3.864628e-04   4.408458e-04
  -3.846804e-04   4.316880e-04
  -3.830168e-04   4.228555e-04
  -3.815169e-04   4.143846e-04
  -3.802986e-04   4.063870e-04
  -3.791556e-04   3.986257e-04
  -3.772508e-04   3.902263e-04
  -3.752233e-04   3.818727e-04
  -3.733014e-04   3.737946e-04
  -3.714120e-04   3.659097e-04
  -3.696416e-04   3.582958e-04
  -3.679361e-04   3.508913e-04
  -3.656965e-04   3.431270e-04
  -3.633831e-04   3.354481e-04
  -3.610560e-04   3.279084e-04
  -3.588371e-04   3.206133e-04
  -3.570457e-04   3.138350e-04
  -3.553294e-04   3.072465e-04
  -3.534251e-04   3.006176e-04
  -3.507357e-04   2.934537e-04
  -3.483083e-04   2.866455e-04
  -3.459962e-04   2.800601e-04
  -3.436671e-04   2.735847e-04
  -3.414926e-04   2.673509e-04
  -3.394451e-04   2.613289e-04
  -3.367004e-04   2.548871e-04
  -3.340858e-04   2.486650e-04
  -3.315515e-04   2.426187e-04
  -3.289774e-04   2.366562e-04
  -3.267216e-04   2.310297e-04
  -3.243524e-04   2.254250e-04
  -3.216214e-04   2.196744e-04
  -3.186699e-04   2.138833e-04
  -3.160478e-04   2.084200e-04
  -3.138566e-04   2.033365e-04
